# Time(fs)    f(t)(a.u.)
0.000000000000000000e+00 2.006170004260452605e-04
2.857551078725532531e-02 2.053540499964745839e-04
5.715102157451065062e-02 2.100733351373416447e-04
8.572653236176597247e-02 2.147743295291637631e-04
1.143020431490213012e-01 2.194565082900754016e-04
1.428775539362766300e-01 2.241193427522039790e-04
1.714530647235319449e-01 2.287623090030554323e-04
2.000285755107872598e-01 2.333848850926877538e-04
2.286040862980426025e-01 2.379865468851116131e-04
2.571795970852979729e-01 2.425667744010733180e-04
2.857551078725532601e-01 2.471250457711231144e-04
3.143306186598085472e-01 2.516608388688623536e-04
3.429061294470638899e-01 2.561736404302199796e-04
3.714816402343192325e-01 2.606629317002834311e-04
4.000571510215745197e-01 2.651281958343722103e-04
4.286326618088298623e-01 2.695689202540713829e-04
4.572081725960852050e-01 2.739845915485472996e-04
4.857836833833405477e-01 2.783746980350951814e-04
5.143591941705959458e-01 2.827387310309921313e-04
5.429347049578511220e-01 2.870761834920290668e-04
5.715102157451065201e-01 2.913865469721961380e-04
6.000857265323618073e-01 2.956693171575786061e-04
6.286612373196170944e-01 2.999239920528055264e-04
6.572367481068724926e-01 3.041500694137743094e-04
6.858122588941277797e-01 3.083470505516637604e-04
7.143877696813831779e-01 3.125144377553762290e-04
7.429632804686384651e-01 3.166517342135204268e-04
7.715387912558937522e-01 3.207584480774761993e-04
8.001143020431490394e-01 3.248340877707215995e-04
8.286898128304044375e-01 3.288781625256428508e-04
8.572653236176597247e-01 3.328901860035067247e-04
8.858408344049151228e-01 3.368696731425178037e-04
9.144163451921704100e-01 3.408161409915684884e-04
9.429918559794256971e-01 3.447291092058539941e-04
9.715673667666810953e-01 3.486081000877692157e-04
1.000142877553936271e+00 3.524526373212066117e-04
1.028718388341191892e+00 3.562622485845515826e-04
1.057293899128447068e+00 3.600364636666690717e-04
1.085869409915702244e+00 3.637748140681856140e-04
1.114444920702957642e+00 3.674768349519462224e-04
1.143020431490213040e+00 3.711420641633423690e-04
1.171595942277468216e+00 3.747700414318913022e-04
1.200171453064723615e+00 3.783603101384457436e-04
1.228746963851979013e+00 3.819124166239169370e-04
1.257322474639234189e+00 3.854259096437641797e-04
1.285897985426489587e+00 3.889003405805561823e-04
1.314473496213744985e+00 3.923352642158027233e-04
1.343049007001000383e+00 3.957302395107971621e-04
1.371624517788255559e+00 3.990848270801550853e-04
1.400200028575510958e+00 4.023985918817541037e-04
1.428775539362766356e+00 4.056711009762374890e-04
1.457351050150021532e+00 4.089019257809561620e-04
1.485926560937276930e+00 4.120906405166261137e-04
1.514502071724532328e+00 4.152368227052904829e-04
1.543077582511787504e+00 4.183400539414096710e-04
1.571653093299042681e+00 4.213999190629740899e-04
1.600228604086298079e+00 4.244160055439785218e-04
1.628804114873553699e+00 4.273879059407430432e-04
1.657379625660808875e+00 4.303152157200530563e-04
1.685955136448064273e+00 4.331975347012188685e-04
1.714530647235319449e+00 4.360344654752722790e-04
1.743106158022574625e+00 4.388256156913121703e-04
1.771681668809830246e+00 4.415705964445941424e-04
1.800257179597085644e+00 4.442690217239007931e-04
1.828832690384340820e+00 4.469205108350297775e-04
1.857408201171595996e+00 4.495246868782787298e-04
1.885983711958851394e+00 4.520811768983723717e-04
1.914559222746107015e+00 4.545896122709630767e-04
1.943134733533362191e+00 4.570496285312651281e-04
1.971710244320617367e+00 4.594608652568752858e-04
2.000285755107872543e+00 4.618229667208016329e-04
2.028861265895128163e+00 4.641355816665818307e-04
2.057436776682383783e+00 4.663983628205897909e-04
2.086012287469638959e+00 4.686109677364627430e-04
2.114587798256894136e+00 4.707730585378880383e-04
2.143163309044149312e+00 4.728843018597673467e-04
2.171738819831404488e+00 4.749443683823365014e-04
2.200314330618660108e+00 4.769529341231851585e-04
2.228889841405915284e+00 4.789096792412278979e-04
2.257465352193170904e+00 4.808142897801064128e-04
2.286040862980426080e+00 4.826664556551957339e-04
2.314616373767681257e+00 4.844658719789805617e-04
2.343191884554936433e+00 4.862122386715737963e-04
2.371767395342192053e+00 4.879052609069950224e-04
2.400342906129447229e+00 4.895446487414386759e-04
2.428918416916702849e+00 4.911301174347364098e-04
2.457493927703958025e+00 4.926613872140615195e-04
2.486069438491213202e+00 4.941381836840258663e-04
2.514644949278468378e+00 4.955602371236550539e-04
2.543220460065723998e+00 4.969272832288749043e-04
2.571795970852979174e+00 4.982390635038053345e-04
2.600371481640234350e+00 4.994953246803532148e-04
2.628946992427489970e+00 5.006958185432202951e-04
2.657522503214745146e+00 5.018403029974802211e-04
2.686098014002000767e+00 5.029285402533230148e-04
2.714673524789255943e+00 5.039602993863581725e-04
2.743249035576511119e+00 5.049353542197959404e-04
2.771824546363766295e+00 5.058534844753814807e-04
2.800400057151021915e+00 5.067144756996285740e-04
2.828975567938277536e+00 5.075181189739003812e-04
2.857551078725532712e+00 5.082642114041304457e-04
2.886126589512787888e+00 5.089525553892246430e-04
2.914702100300043064e+00 5.095829605434373929e-04
2.943277611087298240e+00 5.101552410647815098e-04
2.971853121874553860e+00 5.106692173122764087e-04
3.000428632661809036e+00 5.111247157136478061e-04
3.029004143449064657e+00 5.115215682356794545e-04
3.057579654236319833e+00 5.118596143204357006e-04
3.086155165023575009e+00 5.121386977860747794e-04
3.114730675810830629e+00 5.123586691736808528e-04
3.143306186598085361e+00 5.125193864777401274e-04
3.171881697385340981e+00 5.126207124912639940e-04
3.200457208172596157e+00 5.126625161779055318e-04
3.229032718959851778e+00 5.126446735846389461e-04
3.257608229747107398e+00 5.125670658652019783e-04
3.286183740534362130e+00 5.124295817735350636e-04
3.314759251321617750e+00 5.122321162487931956e-04
3.343334762108872926e+00 5.119745698414316379e-04
3.371910272896128546e+00 5.116568497747014336e-04
3.400485783683383723e+00 5.112788710830365327e-04
3.429061294470638899e+00 5.108405543224655686e-04
3.457636805257894519e+00 5.103418262176851817e-04
3.486212316045149251e+00 5.097826208868844059e-04
3.514787826832404871e+00 5.091628785554761600e-04
3.543363337619660491e+00 5.084825467688251907e-04
3.571938848406915668e+00 5.077415790302044563e-04
3.600514359194171288e+00 5.069399364261923183e-04
3.629089869981426020e+00 5.060775857991871123e-04
3.657665380768681640e+00 5.051545011766559031e-04
3.686240891555937260e+00 5.041706621090290275e-04
3.714816402343191992e+00 5.031260571003445337e-04
3.743391913130447612e+00 5.020206809080707527e-04
3.771967423917702789e+00 5.008545347144144691e-04
3.800542934704958409e+00 4.996276257359924186e-04
3.829118445492214029e+00 4.983399691844353843e-04
3.857693956279468761e+00 4.969915881567903192e-04
3.886269467066724381e+00 4.955825112044442808e-04
3.914844977853979113e+00 4.941127744196628386e-04
3.943420488641234734e+00 4.925824209653787474e-04
3.971995999428490354e+00 4.909915004950816605e-04
4.000571510215745086e+00 4.893400692970394615e-04
4.029147021003001150e+00 4.876281928750464878e-04
4.057722531790256326e+00 4.858559421475013886e-04
4.086298042577511502e+00 4.840233947925767603e-04
4.114873553364767567e+00 4.821306370380072995e-04
4.143449064152021855e+00 4.801777613475515525e-04
4.172024574939277919e+00 4.781648678075446266e-04
4.200600085726532207e+00 4.760920621503775718e-04
4.229175596513788271e+00 4.739594583628718347e-04
4.257751107301043447e+00 4.717671782735142214e-04
4.286326618088298623e+00 4.695153505431851298e-04
4.314902128875554688e+00 4.672041104208341867e-04
4.343477639662808976e+00 4.648335999890416308e-04
4.372053150450065040e+00 4.624039709385090744e-04
4.400628661237320216e+00 4.599153798925512582e-04
4.429204172024575392e+00 4.573679903064984537e-04
4.457779682811830568e+00 4.547619744522387133e-04
4.486355193599085744e+00 4.520975117530016203e-04
4.514930704386341809e+00 4.493747886900550481e-04
4.543506215173596097e+00 4.465939980931938800e-04
4.572081725960852161e+00 4.437553406844047281e-04
4.600657236748107337e+00 4.408590243468685850e-04
4.629232747535362513e+00 4.379052643774622943e-04
4.657808258322618578e+00 4.348942829951822609e-04
4.686383769109872865e+00 4.318263108867709255e-04
4.714959279897128930e+00 4.287015845931581434e-04
4.743534790684384106e+00 4.255203480387748614e-04
4.772110301471639282e+00 4.222828530227555198e-04
4.800685812258894458e+00 4.189893586467383210e-04
4.829261323046149634e+00 4.156401305686366300e-04
4.857836833833405699e+00 4.122354418512018392e-04
4.886412344620660875e+00 4.087755735815229376e-04
4.914987855407916051e+00 4.052608129850260397e-04
4.943563366195171227e+00 4.016914545345962951e-04
4.972138876982426403e+00 3.980678003365190044e-04
5.000714387769681579e+00 3.943901610429210200e-04
5.029289898556936755e+00 3.906588524985553628e-04
5.057865409344192820e+00 3.868741978424006613e-04
5.086440920131447996e+00 3.830365282860191613e-04
5.115016430918703172e+00 3.791461817314488100e-04
5.143591941705958348e+00 3.752035022523862251e-04
5.172167452493213524e+00 3.712088423087512180e-04
5.200742963280468700e+00 3.671625620655864894e-04
5.229318474067724765e+00 3.630650269742419938e-04
5.257893984854979941e+00 3.589166105629831242e-04
5.286469495642235117e+00 3.547176929606601524e-04
5.315045006429490293e+00 3.504686609352266257e-04
5.343620517216745469e+00 3.461699099930711431e-04
5.372196028004001533e+00 3.418218407372053511e-04
5.400771538791256710e+00 3.374248608928527332e-04
5.429347049578511886e+00 3.329793861624733204e-04
5.457922560365767062e+00 3.284858384568085368e-04
5.486498071153022238e+00 3.239446456844800588e-04
5.515073581940278302e+00 3.193562445147006112e-04
5.543649092727532590e+00 3.147210770092740773e-04
5.572224603514788654e+00 3.100395917016539999e-04
5.600800114302043831e+00 3.053122452398538897e-04
5.629375625089299007e+00 3.005394995015424537e-04
5.657951135876555071e+00 2.957218237962452325e-04
5.686526646663809359e+00 2.908596947938345821e-04
5.715102157451065423e+00 2.859535954088095818e-04
5.743677668238319711e+00 2.810040140269114226e-04
5.772253179025575776e+00 2.760114456481890842e-04
5.800828689812830952e+00 2.709763929012164196e-04
5.829404200600086128e+00 2.658993642384021856e-04
5.857979711387342192e+00 2.607808742753975817e-04
5.886555222174596480e+00 2.556214442695176428e-04
5.915130732961852544e+00 2.504216015162895434e-04
5.943706243749107720e+00 2.451818803831326294e-04
5.972281754536362897e+00 2.399028209994135351e-04
6.000857265323618073e+00 2.345849702767532864e-04
6.029432776110873249e+00 2.292288794239205889e-04
6.058008286898129313e+00 2.238351066255064934e-04
6.086583797685383601e+00 2.184042169747868294e-04
6.115159308472639665e+00 2.129367810013972303e-04
6.143734819259894842e+00 2.074333760184747435e-04
6.172310330047150018e+00 2.018945841094777610e-04
6.200885840834406082e+00 1.963209930984651885e-04
6.229461351621661258e+00 1.907131975627408404e-04
6.258036862408916434e+00 1.850717970816722355e-04
6.286612373196170722e+00 1.793973974483512252e-04
6.315187883983426786e+00 1.736906090699515365e-04
6.343763394770681963e+00 1.679520483770001807e-04
6.372338905557938027e+00 1.621823378421101359e-04
6.400914416345192315e+00 1.563821056808685646e-04
6.429489927132447491e+00 1.505519847657633894e-04
6.458065437919703555e+00 1.446926131710377377e-04
6.486640948706958731e+00 1.388046350559520741e-04
6.515216459494214796e+00 1.328886991193567587e-04
6.543791970281469084e+00 1.269454588438914829e-04
6.572367481068724260e+00 1.209755737111301840e-04
6.600942991855980324e+00 1.149797082591954580e-04
6.629518502643235500e+00 1.089585318067886520e-04
6.658094013430491565e+00 1.029127177789765347e-04
6.686669524217745852e+00 9.684294518190509303e-05
6.715245035005001029e+00 9.074989806891936887e-05
6.743820545792257093e+00 8.463426482204554845e-05
6.772396056579512269e+00 7.849673778867154845e-05
6.800971567366767445e+00 7.233801502726584689e-05
6.829547078154021733e+00 6.615879887632424993e-05
6.858122588941277797e+00 5.995979562921467193e-05
6.886698099728532974e+00 5.374171525774344054e-05
6.915273610515789038e+00 4.750527280998637303e-05
6.943849121303044214e+00 4.125118756093277688e-05
6.972424632090298502e+00 3.498018319020370921e-05
7.001000142877554566e+00 2.869298710008452095e-05
7.029575653664809742e+00 2.239033073842916795e-05
7.058151164452065807e+00 1.607294915474161048e-05
7.086726675239320983e+00 9.741581366355334129e-06
7.115302186026575271e+00 3.396969895023109600e-06
7.143877696813831335e+00 -2.960139138748038650e-06
7.172453207601086511e+00 -9.328996203836251755e-06
7.201028718388342575e+00 -1.570884753199401434e-05
7.229604229175597752e+00 -2.209893569220264476e-05
7.258179739962852040e+00 -2.849850044306402721e-05
7.286755250750107216e+00 -3.490677865755270940e-05
7.315330761537363280e+00 -4.132300422263448023e-05
7.343906272324618456e+00 -4.774640780725744550e-05
7.372481783111874520e+00 -5.417621678724189631e-05
7.401057293899128808e+00 -6.061165598731560103e-05
7.429632804686383984e+00 -6.705194739550506976e-05
7.458208315473640049e+00 -7.349631001326110415e-05
7.486783826260895225e+00 -7.994396035669305801e-05
7.515359337048151289e+00 -8.639411219216240698e-05
7.543934847835405577e+00 -9.284597703059191171e-05
7.572510358622660753e+00 -9.929876408712287508e-05
7.601085869409916818e+00 -1.057516802211933888e-04
7.629661380197171994e+00 -1.122039301954019021e-04
7.658236890984428058e+00 -1.186547166871950159e-04
7.686812401771682346e+00 -1.251032406263712299e-04
7.715387912558937522e+00 -1.315487009998410144e-04
7.743963423346193586e+00 -1.379902949241109289e-04
7.772538934133448763e+00 -1.444272177457780375e-04
7.801114444920704827e+00 -1.508586631452441191e-04
7.829689955707958227e+00 -1.572838234607136303e-04
7.858265466495214291e+00 -1.637018896633563416e-04
7.886840977282469467e+00 -1.701120513428295243e-04
7.915416488069725531e+00 -1.765134968829887698e-04
7.943991998856980707e+00 -1.829054136055103803e-04
7.972567509644234995e+00 -1.892869878928292709e-04
8.001143020431490172e+00 -1.956574052968637113e-04
8.029718531218746236e+00 -2.020158505089200696e-04
8.058294042006002300e+00 -2.083615074156556417e-04
8.086869552793258364e+00 -2.146935594163223873e-04
8.115445063580512652e+00 -2.210111893747463687e-04
8.144020574367766940e+00 -2.273135797620621807e-04
8.172596085155023005e+00 -2.335999128297554662e-04
8.201171595942279069e+00 -2.398693706156255134e-04
8.229747106729535133e+00 -2.461211351201666531e-04
8.258322617516789421e+00 -2.523543883282255225e-04
8.286898128304043709e+00 -2.585683122955171730e-04
8.315473639091299773e+00 -2.647620894103498213e-04
8.344049149878555838e+00 -2.709349023049229086e-04
8.372624660665810126e+00 -2.770859339742521524e-04
8.401200171453064414e+00 -2.832143680997718576e-04
8.429775682240320478e+00 -2.893193891720160778e-04
8.458351193027576542e+00 -2.954001822678098649e-04
8.486926703814832607e+00 -3.014559334234369662e-04
8.515502214602086895e+00 -3.074858296488807113e-04
8.544077725389341182e+00 -3.134890589749268503e-04
8.572653236176597247e+00 -3.194648106448724528e-04
8.601228746963853311e+00 -3.254122754206157514e-04
8.629804257751109375e+00 -3.313306453309641363e-04
8.658379768538363663e+00 -3.372191140299439461e-04
8.686955279325617951e+00 -3.430768767323985873e-04
8.715530790112874016e+00 -3.489031303894083802e-04
8.744106300900130080e+00 -3.546970738063024960e-04
8.772681811687386144e+00 -3.604579077369226376e-04
8.801257322474640432e+00 -3.661848349821565261e-04
8.829832833261894720e+00 -3.718770605778059591e-04
8.858408344049150784e+00 -3.775337919503283872e-04
8.886983854836406849e+00 -3.831542389513165493e-04
8.915559365623661137e+00 -3.887376140116810194e-04
8.944134876410915425e+00 -3.942831320864194854e-04
8.972710387198171489e+00 -3.997900108363604743e-04
9.001285897985427553e+00 -4.052574706978061573e-04
9.029861408772683617e+00 -4.106847351512823248e-04
9.058436919559937905e+00 -4.160710308140306971e-04
9.087012430347192193e+00 -4.214155875484211738e-04
9.115587941134448258e+00 -4.267176385135508032e-04
9.144163451921704322e+00 -4.319764202490166695e-04
9.172738962708960386e+00 -4.371911729372648459e-04
9.201314473496214674e+00 -4.423611402443525915e-04
9.229889984283468962e+00 -4.474855694382472225e-04
9.258465495070725026e+00 -4.525637117290938569e-04
9.287041005857981091e+00 -4.575948223529675385e-04
9.315616516645237155e+00 -4.625781606687145000e-04
9.344192027432491443e+00 -4.675129901808521395e-04
9.372767538219745731e+00 -4.723985787234216823e-04
9.401343049007001795e+00 -4.772341984831384451e-04
9.429918559794257860e+00 -4.820191262275755188e-04
9.458494070581512148e+00 -4.867526433299822946e-04
9.487069581368768212e+00 -4.914340358248665223e-04
9.515645092156022500e+00 -4.960625945815168563e-04
9.544220602943278564e+00 -5.006376154724933485e-04
9.572796113730534628e+00 -5.051583993938474392e-04
9.601371624517788916e+00 -5.096242523706182980e-04
9.629947135305044981e+00 -5.140344859012287767e-04
9.658522646092299269e+00 -5.183884168119926332e-04
9.687098156879555333e+00 -5.226853673001665736e-04
9.715673667666811397e+00 -5.269246652574800837e-04
9.744249178454065685e+00 -5.311056443263646471e-04
9.772824689241321749e+00 -5.352276438795086199e-04
9.801400200028576037e+00 -5.392900091100986297e-04
9.829975710815832102e+00 -5.432920911940753101e-04
9.858551221603088166e+00 -5.472332475626555393e-04
9.887126732390342454e+00 -5.511128419581654914e-04
9.915702243177598518e+00 -5.549302443701006806e-04
9.944277753964852806e+00 -5.586848312214495738e-04
9.972853264752108871e+00 -5.623759855057364199e-04
1.000142877553936316e+01 -5.660030969231039100e-04
1.003000428632661922e+01 -5.695655619404706767e-04
1.005857979711387351e+01 -5.730627838182103658e-04
1.008715530790112958e+01 -5.764941727317091308e-04
1.011573081868838564e+01 -5.798591458458907631e-04
1.014430632947563993e+01 -5.831571274260062164e-04
1.017288184026289599e+01 -5.863875488173691088e-04
1.020145735105015028e+01 -5.895498486852188656e-04
1.023003286183740634e+01 -5.926434732767536274e-04
1.025860837262466241e+01 -5.956678765402513261e-04
1.028718388341191670e+01 -5.986225199481621509e-04
1.031575939419917276e+01 -6.015068727211580601e-04
1.034433490498642705e+01 -6.043204117878801492e-04
1.037291041577368311e+01 -6.070626219679003694e-04
1.040148592656093740e+01 -6.097329959785641445e-04
1.043006143734819346e+01 -6.123310347176067489e-04
1.045863694813544953e+01 -6.148562473938782745e-04
1.048721245892270382e+01 -6.173081514038728434e-04
1.051578796970995988e+01 -6.196862724967839697e-04
1.054436348049721417e+01 -6.219901447872520656e-04
1.057293899128447023e+01 -6.242193110250668885e-04
1.060151450207172630e+01 -6.263733224742054888e-04
1.063009001285898059e+01 -6.284517390194543874e-04
1.065866552364623665e+01 -6.304541294692226879e-04
1.068724103443349094e+01 -6.323800713794515979e-04
1.071581654522074700e+01 -6.342291512417844385e-04
1.074439205600800307e+01 -6.360009646566778434e-04
1.077296756679525735e+01 -6.376951162756882684e-04
1.080154307758251342e+01 -6.393112198751627192e-04
1.083011858836976771e+01 -6.408488986617865476e-04
1.085869409915702377e+01 -6.423077849948619208e-04
1.088726960994427984e+01 -6.436875207022331674e-04
1.091584512073153412e+01 -6.449877570098385728e-04
1.094442063151878841e+01 -6.462081547217153697e-04
1.097299614230604448e+01 -6.473483843678613878e-04
1.100157165309330054e+01 -6.484081262290735835e-04
1.103014716388055660e+01 -6.493870703811929204e-04
1.105872267466781089e+01 -6.502849164686687463e-04
1.108729818545506518e+01 -6.511013742383072941e-04
1.111587369624232124e+01 -6.518361633705625595e-04
1.114444920702957731e+01 -6.524890133770042773e-04
1.117302471781683337e+01 -6.530596637981405826e-04
1.120160022860408766e+01 -6.535478645034934050e-04
1.123017573939134195e+01 -6.539533758742321077e-04
1.125875125017859801e+01 -6.542759682767367371e-04
1.128732676096585408e+01 -6.545154223488457200e-04
