# Time(fs)    f(t)(a.u.)
0.000000000000000000e+00 -8.763668573015604758e-06
2.857551078725532531e-02 -8.908594083847887982e-06
5.715102157451065062e-02 -9.052413969558099942e-06
8.572653236176597247e-02 -9.195089701501003973e-06
1.143020431490213012e-01 -9.336582739855446380e-06
1.428775539362766300e-01 -9.476854723721124922e-06
1.714530647235319449e-01 -9.615867610106278651e-06
2.000285755107872598e-01 -9.753583773381028024e-06
2.286040862980426025e-01 -9.889965883680999434e-06
2.571795970852979729e-01 -1.002497645724298176e-05
2.857551078725532601e-01 -1.015857742377273500e-05
3.143306186598085472e-01 -1.029073195255682789e-05
3.429061294470638899e-01 -1.042140336235364387e-05
3.714816402343192325e-01 -1.055055505478169034e-05
4.000571510215745197e-01 -1.067815074227775389e-05
4.286326618088298623e-01 -1.080415430933174977e-05
4.572081725960852050e-01 -1.092853006133194559e-05
4.857836833833405477e-01 -1.105124248851747374e-05
5.143591941705959458e-01 -1.117225663004948554e-05
5.429347049578511220e-01 -1.129153756844537937e-05
5.715102157451065201e-01 -1.140905096214202831e-05
6.000857265323618073e-01 -1.152476257922214038e-05
6.286612373196170944e-01 -1.163863855934244488e-05
6.572367481068724926e-01 -1.175064507225034547e-05
6.858122588941277797e-01 -1.186074904137607429e-05
7.143877696813831779e-01 -1.196891794963996862e-05
7.429632804686384651e-01 -1.207511933870080909e-05
7.715387912558937522e-01 -1.217932124912526422e-05
8.001143020431490394e-01 -1.228149212086664882e-05
8.286898128304044375e-01 -1.238160087100185548e-05
8.572653236176597247e-01 -1.247961671194079618e-05
8.858408344049151228e-01 -1.257550939723385078e-05
9.144163451921704100e-01 -1.266924911623637433e-05
9.429918559794256971e-01 -1.276080637440784246e-05
9.715673667666810953e-01 -1.285015235697699383e-05
1.000142877553936271e+00 -1.293725864824460334e-05
1.028718388341191892e+00 -1.302209720057374478e-05
1.057293899128447068e+00 -1.310464064802589288e-05
1.085869409915702244e+00 -1.318486198689558289e-05
1.114444920702957642e+00 -1.326273468048674463e-05
1.143020431490213040e+00 -1.333823286771790822e-05
1.171595942277468216e+00 -1.341133089840743374e-05
1.200171453064723615e+00 -1.348200414426379025e-05
1.228746963851979013e+00 -1.355022813738079148e-05
1.257322474639234189e+00 -1.361597908514265305e-05
1.285897985426489587e+00 -1.367923365211422147e-05
1.314473496213744985e+00 -1.373996914676872670e-05
1.343049007001000383e+00 -1.379816365978217042e-05
1.371624517788255559e+00 -1.385379554863128579e-05
1.400200028575510958e+00 -1.390684391335426130e-05
1.428775539362766356e+00 -1.395728838053136744e-05
1.457351050150021532e+00 -1.400510938769776480e-05
1.485926560937276930e+00 -1.405028781822643524e-05
1.514502071724532328e+00 -1.409280512291818598e-05
1.543077582511787504e+00 -1.413264347324410944e-05
1.571653093299042681e+00 -1.416978552428198474e-05
1.600228604086298079e+00 -1.420421469885830277e-05
1.628804114873553699e+00 -1.423591503457063641e-05
1.657379625660808875e+00 -1.426487145782919751e-05
1.685955136448064273e+00 -1.429106914766741734e-05
1.714530647235319449e+00 -1.431449430815231772e-05
1.743106158022574625e+00 -1.433513369777026627e-05
1.771681668809830246e+00 -1.435297460613974185e-05
1.800257179597085644e+00 -1.436800517827740017e-05
1.828832690384340820e+00 -1.438021416839118493e-05
1.857408201171595996e+00 -1.438959109031737046e-05
1.885983711958851394e+00 -1.439612603215133143e-05
1.914559222746107015e+00 -1.439980989434717452e-05
1.943134733533362191e+00 -1.440063421678496095e-05
1.971710244320617367e+00 -1.439859134054570862e-05
2.000285755107872543e+00 -1.439367415257863804e-05
2.028861265895128163e+00 -1.438587649065257942e-05
2.057436776682383783e+00 -1.437519281897926752e-05
2.086012287469638959e+00 -1.436161834044659462e-05
2.114587798256894136e+00 -1.434514890289585321e-05
2.143163309044149312e+00 -1.432578122934593642e-05
2.171738819831404488e+00 -1.430351263504532952e-05
2.200314330618660108e+00 -1.427834139752144818e-05
2.228889841405915284e+00 -1.425026625622931485e-05
2.257465352193170904e+00 -1.421928708316688435e-05
2.286040862980426080e+00 -1.418540416244767747e-05
2.314616373767681257e+00 -1.414861872333441855e-05
2.343191884554936433e+00 -1.410893261842211303e-05
2.371767395342192053e+00 -1.406634855513375451e-05
2.400342906129447229e+00 -1.402087001466214487e-05
2.428918416916702849e+00 -1.397250120577462654e-05
2.457493927703958025e+00 -1.392124700578769485e-05
2.486069438491213202e+00 -1.386711324976945729e-05
2.514644949278468378e+00 -1.381010648641879357e-05
2.543220460065723998e+00 -1.375023401722335509e-05
2.571795970852979174e+00 -1.368750389379933426e-05
2.600371481640234350e+00 -1.362192496913413891e-05
2.628946992427489970e+00 -1.355350684442224398e-05
2.657522503214745146e+00 -1.348225991195449477e-05
2.686098014002000767e+00 -1.340819530217693662e-05
2.714673524789255943e+00 -1.333132507897184015e-05
2.743249035576511119e+00 -1.325166187924735903e-05
2.771824546363766295e+00 -1.316921929720695732e-05
2.800400057151021915e+00 -1.308401148659992036e-05
2.828975567938277536e+00 -1.299605355877062576e-05
2.857551078725532712e+00 -1.290536128007376670e-05
2.886126589512787888e+00 -1.281195113975637523e-05
2.914702100300043064e+00 -1.271584052526120444e-05
2.943277611087298240e+00 -1.261704756473636113e-05
2.971853121874553860e+00 -1.251559105697157964e-05
3.000428632661809036e+00 -1.241149081760229519e-05
3.029004143449064657e+00 -1.230476715506621244e-05
3.057579654236319833e+00 -1.219544122714624945e-05
3.086155165023575009e+00 -1.208353503425582115e-05
3.114730675810830629e+00 -1.196907122480736651e-05
3.143306186598085361e+00 -1.185207315588668904e-05
3.171881697385340981e+00 -1.173256520074659611e-05
3.200457208172596157e+00 -1.161057212863656979e-05
3.229032718959851778e+00 -1.148611974551601159e-05
3.257608229747107398e+00 -1.135923442184565127e-05
3.286183740534362130e+00 -1.122994321080492830e-05
3.314759251321617750e+00 -1.109827412662929176e-05
3.343334762108872926e+00 -1.096425579255972947e-05
3.371910272896128546e+00 -1.082791739545183428e-05
3.400485783683383723e+00 -1.068928897530481646e-05
3.429061294470638899e+00 -1.054840139015145102e-05
3.457636805257894519e+00 -1.040528603472209144e-05
3.486212316045149251e+00 -1.025997508417280812e-05
3.514787826832404871e+00 -1.011250135496688620e-05
3.543363337619660491e+00 -9.962898437557708605e-06
3.571938848406915668e+00 -9.811200601414560090e-06
3.600514359194171288e+00 -9.657442759190678825e-06
3.629089869981426020e+00 -9.501660514958804591e-06
3.657665380768681640e+00 -9.343890116260187932e-06
3.686240891555937260e+00 -9.184168523825018924e-06
3.714816402343191992e+00 -9.022533318682613224e-06
3.743391913130447612e+00 -8.859022758365405758e-06
3.771967423917702789e+00 -8.693675728146898726e-06
3.800542934704958409e+00 -8.526531730342071848e-06
3.829118445492214029e+00 -8.357630923982639404e-06
3.857693956279468761e+00 -8.187014047566949172e-06
3.886269467066724381e+00 -8.014722486138036025e-06
3.914844977853979113e+00 -7.840798195556396332e-06
3.943420488641234734e+00 -7.665283782559881943e-06
3.971995999428490354e+00 -7.488222368061730466e-06
4.000571510215745086e+00 -7.309657705793236901e-06
4.029147021003001150e+00 -7.129634121008138184e-06
4.057722531790256326e+00 -6.948196494025776074e-06
4.086298042577511502e+00 -6.765390247542555456e-06
4.114873553364767567e+00 -6.581261378073914921e-06
4.143449064152021855e+00 -6.395856379581188572e-06
4.172024574939277919e+00 -6.209222314643785737e-06
4.200600085726532207e+00 -6.021406721808033633e-06
4.229175596513788271e+00 -5.832457681528067201e-06
4.257751107301043447e+00 -5.642423747588351868e-06
4.286326618088298623e+00 -5.451353967388670813e-06
4.314902128875554688e+00 -5.259297865249486747e-06
4.343477639662808976e+00 -5.066305433658559439e-06
4.372053150450065040e+00 -4.872427121510120246e-06
4.400628661237320216e+00 -4.677713831541817333e-06
4.429204172024575392e+00 -4.482216894343392795e-06
4.457779682811830568e+00 -4.285988061097916076e-06
4.486355193599085744e+00 -4.089079491175294089e-06
4.514930704386341809e+00 -3.891543780957617253e-06
4.543506215173596097e+00 -3.693433883320276984e-06
4.572081725960852161e+00 -3.494803151170830957e-06
4.600657236748107337e+00 -3.295705314985211613e-06
4.629232747535362513e+00 -3.096194458399611627e-06
4.657808258322618578e+00 -2.896324992749180883e-06
4.686383769109872865e+00 -2.696151671946002645e-06
4.714959279897128930e+00 -2.495729589401952880e-06
4.743534790684384106e+00 -2.295114147638757734e-06
4.772110301471639282e+00 -2.094361037313413861e-06
4.800685812258894458e+00 -1.893526215675143569e-06
4.829261323046149634e+00 -1.692665933315854662e-06
4.857836833833405699e+00 -1.491836694823205032e-06
4.886412344620660875e+00 -1.291095248417814388e-06
4.914987855407916051e+00 -1.090498579715280160e-06
4.943563366195171227e+00 -8.901039038307045142e-07
4.972138876982426403e+00 -6.899686371805171298e-07
5.000714387769681579e+00 -4.901504125641837553e-07
5.029289898556936755e+00 -2.907070282273251202e-07
5.057865409344192820e+00 -9.169646150452022693e-08
5.086440920131447996e+00 1.068231595148966354e-07
5.115016430918703172e+00 3.047935522719186846e-07
5.143591941705958348e+00 5.021563224080346074e-07
5.172167452493213524e+00 6.988529566517466594e-07
5.200742963280468700e+00 8.948248398982393635e-07
5.229318474067724765e+00 1.090013258129752918e-06
5.257893984854979941e+00 1.284359456735760591e-06
5.286469495642235117e+00 1.477804577371408321e-06
5.315045006429490293e+00 1.670289745372704964e-06
5.343620517216745469e+00 1.861756042612373380e-06
5.372196028004001533e+00 2.052144553135676417e-06
5.400771538791256710e+00 2.241396331969741100e-06
5.429347049578511886e+00 2.429452454024340227e-06
5.457922560365767062e+00 2.616254003067490692e-06
5.486498071153022238e+00 2.801742095808327058e-06
5.515073581940278302e+00 2.985857916002256378e-06
5.543649092727532590e+00 3.168542723228399787e-06
5.572224603514788654e+00 3.349737856432076570e-06
5.600800114302043831e+00 3.529384721541826637e-06
5.629375625089299007e+00 3.707424873641280368e-06
5.657951135876555071e+00 3.883799983120080076e-06
5.686526646663809359e+00 4.058451830316876874e-06
5.715102157451065423e+00 4.231322401607191215e-06
5.743677668238319711e+00 4.402353840385849591e-06
5.772253179025575776e+00 4.571488465267992925e-06
5.800828689812830952e+00 4.738668804844314782e-06
5.829404200600086128e+00 4.903837589099784973e-06
5.857979711387342192e+00 5.066937800421080024e-06
5.886555222174596480e+00 5.227912698909109940e-06
5.915130732961852544e+00 5.386705780531081006e-06
5.943706243749107720e+00 5.543260867662209898e-06
5.972281754536362897e+00 5.697522048730539253e-06
6.000857265323618073e+00 5.849433762057189683e-06
6.029432776110873249e+00 5.998940784597376756e-06
6.058008286898129313e+00 6.145988216366440567e-06
6.086583797685383601e+00 6.290521592261207737e-06
6.115159308472639665e+00 6.432486830653124777e-06
6.143734819259894842e+00 6.571830263552118627e-06
6.172310330047150018e+00 6.708498766552649388e-06
6.200885840834406082e+00 6.842439497623696974e-06
6.229461351621661258e+00 6.973600438786818781e-06
6.258036862408916434e+00 7.101929910097850099e-06
6.286612373196170722e+00 7.227376949201214966e-06
6.315187883983426786e+00 7.349891303869811391e-06
6.343763394770681963e+00 7.469423439711639825e-06
6.372338905557938027e+00 7.585924659419794037e-06
6.400914416345192315e+00 7.699347186965895370e-06
6.429489927132447491e+00 7.809644339430605881e-06
6.458065437919703555e+00 7.916770675779856231e-06
6.486640948706958731e+00 8.020682219861301332e-06
6.515216459494214796e+00 8.121336765598891177e-06
6.543791970281469084e+00 8.218694019660788386e-06
6.572367481068724260e+00 8.312716381579839865e-06
6.600942991855980324e+00 8.403369140430332710e-06
6.629518502643235500e+00 8.490621404904171885e-06
6.658094013430491565e+00 8.574447077279356554e-06
6.686669524217745852e+00 8.654826147332712638e-06
6.715245035005001029e+00 8.731745765157601991e-06
6.743820545792257093e+00 8.805202848785723168e-06
6.772396056579512269e+00 8.875206293633899150e-06
6.800971567366767445e+00 8.941780120650856279e-06
6.829547078154021733e+00 9.004966808146297892e-06
6.858122588941277797e+00 9.064832238966093024e-06
6.886698099728532974e+00 9.121469416236856515e-06
6.915273610515789038e+00 9.175003445882554053e-06
6.943849121303044214e+00 9.225594250832068759e-06
6.972424632090298502e+00 9.273435644685633502e-06
7.001000142877554566e+00 9.318750909014564040e-06
7.029575653664809742e+00 9.361777253115653301e-06
7.058151164452065807e+00 9.402740322787459570e-06
7.086726675239320983e+00 9.441814093218562609e-06
7.115302186026575271e+00 9.479069171751763434e-06
7.143877696813831335e+00 9.514416255344983927e-06
7.172453207601086511e+00 9.547562324148073208e-06
7.201028718388342575e+00 9.577989347266671415e-06
7.229604229175597752e+00 9.604983254369703593e-06
7.258179739962852040e+00 9.627705212694628016e-06
7.286755250750107216e+00 9.645297475599713783e-06
7.315330761537363280e+00 9.656994584652055152e-06
7.343906272324618456e+00 9.662210653768312247e-06
7.372481783111874520e+00 9.660582754101058870e-06
7.401057293899128808e+00 9.651967315392426339e-06
7.429632804686383984e+00 9.636402256182797653e-06
7.458208315473640049e+00 9.614053576262924255e-06
7.486783826260895225e+00 9.585159832360988630e-06
7.515359337048151289e+00 9.549987501161094993e-06
7.543934847835405577e+00 9.508799038067054964e-06
7.572510358622660753e+00 9.461834049577313874e-06
7.601085869409916818e+00 9.409300249587031326e-06
7.629661380197171994e+00 9.351370927258547536e-06
7.658236890984428058e+00 9.288187053043262851e-06
7.686812401771682346e+00 9.219860844672906974e-06
7.715387912558937522e+00 9.146480442225642381e-06
7.743963423346193586e+00 9.068113697836117736e-06
7.772538934133448763e+00 8.984813004856757827e-06
7.801114444920704827e+00 8.896618330613928504e-06
7.829689955707958227e+00 8.803560114938514017e-06
7.858265466495214291e+00 8.705661536857337688e-06
7.886840977282469467e+00 8.602940322822521279e-06
7.915416488069725531e+00 8.495410208263782771e-06
7.943991998856980707e+00 8.383081934915016814e-06
7.972567509644234995e+00 8.265964276925758455e-06
8.001143020431490172e+00 8.144064772428938532e-06
8.029718531218746236e+00 8.017389745744354828e-06
8.058294042006002300e+00 7.885945765876362369e-06
8.086869552793258364e+00 7.749738812675188883e-06
8.115445063580512652e+00 7.608775360762593378e-06
8.144020574367766940e+00 7.463062038763007597e-06
8.172596085155023005e+00 7.312606193396736680e-06
8.201171595942279069e+00 7.157415782094156330e-06
8.229747106729535133e+00 6.997499606752217745e-06
8.258322617516789421e+00 6.832867209779460258e-06
8.286898128304043709e+00 6.663529178223071621e-06
8.315473639091299773e+00 6.489497044610057851e-06
8.344049149878555838e+00 6.310783237579161177e-06
8.372624660665810126e+00 6.127401218295990535e-06
8.401200171453064414e+00 5.939365476490091529e-06
8.429775682240320478e+00 5.746691651317865912e-06
8.458351193027576542e+00 5.549396495717162745e-06
8.486926703814832607e+00 5.347497831212306598e-06
8.515502214602086895e+00 5.141014641726066957e-06
8.544077725389341182e+00 4.929967109861083776e-06
8.572653236176597247e+00 4.714376440414245913e-06
8.601228746963853311e+00 4.494265124582150938e-06
8.629804257751109375e+00 4.269656772014238056e-06
8.658379768538363663e+00 4.040576087004629969e-06
8.686955279325617951e+00 3.807049091266948387e-06
8.715530790112874016e+00 3.569102904300425013e-06
8.744106300900130080e+00 3.326765800479250912e-06
8.772681811687386144e+00 3.080067234335239438e-06
8.801257322474640432e+00 2.829037972410822449e-06
8.829832833261894720e+00 2.573709891340450504e-06
8.858408344049150784e+00 2.314115879514038149e-06
8.886983854836406849e+00 2.050290289322951124e-06
8.915559365623661137e+00 1.782268530672053356e-06
8.944134876410915425e+00 1.510087147831632636e-06
8.972710387198171489e+00 1.233783920036619199e-06
9.001285897985427553e+00 9.533978080369439145e-07
9.029861408772683617e+00 6.689689351783897333e-07
9.058436919559937905e+00 3.805385881893451145e-07
9.087012430347192193e+00 8.814925564517790463e-08
9.115587941134448258e+00 -2.081554776477870116e-07
9.144163451921704322e+00 -5.083307815287518740e-07
9.172738962708960386e+00 -8.123307523336968851e-07
9.201314473496214674e+00 -1.120108128118813657e-06
9.229889984283468962e+00 -1.431614646888949390e-06
9.258465495070725026e+00 -1.746800826717469706e-06
9.287041005857981091e+00 -2.065616156510793818e-06
9.315616516645237155e+00 -2.388008833570214966e-06
9.344192027432491443e+00 -2.713926024670672144e-06
9.372767538219745731e+00 -3.043313704827009824e-06
9.401343049007001795e+00 -3.376116797225369640e-06
9.429918559794257860e+00 -3.712279011502953134e-06
9.458494070581512148e+00 -4.051743043807615492e-06
9.487069581368768212e+00 -4.394450407580595571e-06
9.515645092156022500e+00 -4.740341552196684564e-06
9.544220602943278564e+00 -5.089355821463656168e-06
9.572796113730534628e+00 -5.441431467966776317e-06
9.601371624517788916e+00 -5.796505695562998570e-06
9.629947135305044981e+00 -6.154514622062361109e-06
9.658522646092299269e+00 -6.515393305096739715e-06
9.687098156879555333e+00 -6.879075746471940316e-06
9.715673667666811397e+00 -7.245494880114208395e-06
9.744249178454065685e+00 -7.614582628036345330e-06
9.772824689241321749e+00 -7.986269900854159630e-06
9.801400200028576037e+00 -8.360486560819219129e-06
9.829975710815832102e+00 -8.737161485828828423e-06
9.858551221603088166e+00 -9.116222538365368803e-06
9.887126732390342454e+00 -9.497596601659414491e-06
9.915702243177598518e+00 -9.881209576508226069e-06
9.944277753964852806e+00 -1.026698637475252274e-05
9.972853264752108871e+00 -1.065485099785128871e-05
1.000142877553936316e+01 -1.104472650997178716e-05
1.003000428632661922e+01 -1.143653495909200215e-05
1.005857979711387351e+01 -1.183019754753182693e-05
1.008715530790112958e+01 -1.222563454049080883e-05
1.011573081868838564e+01 -1.262276532611199415e-05
1.014430632947563993e+01 -1.302150839082692006e-05
1.017288184026289599e+01 -1.342178136897705773e-05
1.020145735105015028e+01 -1.382350100168403375e-05
1.023003286183740634e+01 -1.422658321795069525e-05
1.025860837262466241e+01 -1.463094307808579571e-05
1.028718388341191670e+01 -1.503649483139903589e-05
1.031575939419917276e+01 -1.544315192717066740e-05
1.034433490498642705e+01 -1.585082702694682309e-05
1.037291041577368311e+01 -1.625943199550946135e-05
1.040148592656093740e+01 -1.666887795904734826e-05
1.043006143734819346e+01 -1.707907525365300692e-05
1.045863694813544953e+01 -1.748993353525728057e-05
1.048721245892270382e+01 -1.790136171187076253e-05
1.051578796970995988e+01 -1.831326798155872608e-05
1.054436348049721417e+01 -1.872555985978343612e-05
1.057293899128447023e+01 -1.913814420765533048e-05
1.060151450207172630e+01 -1.955092719772656004e-05
1.063009001285898059e+01 -1.996381437973949189e-05
1.065866552364623665e+01 -2.037671069946508804e-05
1.068724103443349094e+01 -2.078952044876527841e-05
1.071581654522074700e+01 -2.120214734323619868e-05
1.074439205600800307e+01 -2.161449454291771552e-05
1.077296756679525735e+01 -2.202646461580080444e-05
1.080154307758251342e+01 -2.243795960356069456e-05
1.083011858836976771e+01 -2.284888104546901533e-05
1.085869409915702377e+01 -2.325912994644045438e-05
1.088726960994427984e+01 -2.366860683734394618e-05
1.091584512073153412e+01 -2.407721178418645400e-05
1.094442063151878841e+01 -2.448484437400911916e-05
1.097299614230604448e+01 -2.489140378832519374e-05
1.100157165309330054e+01 -2.529678882523544065e-05
1.103014716388055660e+01 -2.570089780272380843e-05
1.105872267466781089e+01 -2.610362870833642687e-05
1.108729818545506518e+01 -2.650487917065602082e-05
1.111587369624232124e+01 -2.690454649526135230e-05
1.114444920702957731e+01 -2.730252763432662182e-05
1.117302471781683337e+01 -2.769871923777482490e-05
1.120160022860408766e+01 -2.809301768510354119e-05
1.123017573939134195e+01 -2.848531914420404413e-05
