# Time(fs)    f(t)(a.u.)
0.000000000000000000e+00 -3.006069539404186025e-04
2.857551078725532531e-02 -2.993959733262140490e-04
5.715102157451065062e-02 -2.981474276199641950e-04
8.572653236176597247e-02 -2.968614440533887751e-04
1.143020431490213012e-01 -2.955381660740987837e-04
1.428775539362766300e-01 -2.941777368548364915e-04
1.714530647235319449e-01 -2.927802956228006247e-04
2.000285755107872598e-01 -2.913459750104399897e-04
2.286040862980426025e-01 -2.898748996418545800e-04
2.571795970852979729e-01 -2.883672217677056386e-04
2.857551078725532601e-01 -2.868231649033050018e-04
3.143306186598085472e-01 -2.852428761969532669e-04
3.429061294470638899e-01 -2.836265256764195332e-04
3.714816402343192325e-01 -2.819742843155159488e-04
4.000571510215745197e-01 -2.802863317558653799e-04
4.286326618088298623e-01 -2.785628492310606840e-04
4.572081725960852050e-01 -2.768040285319866298e-04
4.857836833833405477e-01 -2.750100720322364153e-04
5.143591941705959458e-01 -2.731811775449639727e-04
5.429347049578511220e-01 -2.713175391023563208e-04
5.715102157451065201e-01 -2.694193746893191392e-04
6.000857265323618073e-01 -2.674868981948955692e-04
6.286612373196170944e-01 -2.655203219974142386e-04
6.572367481068724926e-01 -2.635198696500493836e-04
6.858122588941277797e-01 -2.614857706725836868e-04
7.143877696813831779e-01 -2.594182570283684532e-04
7.429632804686384651e-01 -2.573175647033612914e-04
7.715387912558937522e-01 -2.551839342895498861e-04
8.001143020431490394e-01 -2.530176076651856061e-04
8.286898128304044375e-01 -2.508188361302152321e-04
8.572653236176597247e-01 -2.485878757103352843e-04
8.858408344049151228e-01 -2.463249859026295772e-04
9.144163451921704100e-01 -2.440304301006893095e-04
9.429918559794256971e-01 -2.417044745953697603e-04
9.715673667666810953e-01 -2.393473886815764235e-04
1.000142877553936271e+00 -2.369594494702371718e-04
1.028718388341191892e+00 -2.345409387193653835e-04
1.057293899128447068e+00 -2.320921376033398958e-04
1.085869409915702244e+00 -2.296133375274211452e-04
1.114444920702957642e+00 -2.271048312619976034e-04
1.143020431490213040e+00 -2.245669179146178682e-04
1.171595942277468216e+00 -2.219998963709686208e-04
1.200171453064723615e+00 -2.194040728216917668e-04
1.228746963851979013e+00 -2.167797546794958765e-04
1.257322474639234189e+00 -2.141272552303615493e-04
1.285897985426489587e+00 -2.114468927438267613e-04
1.314473496213744985e+00 -2.087389920660258520e-04
1.343049007001000383e+00 -2.060038798710731489e-04
1.371624517788255559e+00 -2.032418844652149358e-04
1.400200028575510958e+00 -2.004533334828538125e-04
1.428775539362766356e+00 -1.976385642556364444e-04
1.457351050150021532e+00 -1.947979194964027363e-04
1.485926560937276930e+00 -1.919317422105221301e-04
1.514502071724532328e+00 -1.890403827804022026e-04
1.543077582511787504e+00 -1.861241914987124448e-04
1.571653093299042681e+00 -1.831835234814761413e-04
1.600228604086298079e+00 -1.802187386104179190e-04
1.628804114873553699e+00 -1.772301970024524732e-04
1.657379625660808875e+00 -1.742182614772428979e-04
1.685955136448064273e+00 -1.711833023747029849e-04
1.714530647235319449e+00 -1.681256930944437700e-04
1.743106158022574625e+00 -1.650458104192694016e-04
1.771681668809830246e+00 -1.619440323944587178e-04
1.800257179597085644e+00 -1.588207368945796449e-04
1.828832690384340820e+00 -1.556763101440343880e-04
1.857408201171595996e+00 -1.525111411921726222e-04
1.885983711958851394e+00 -1.493256224110099228e-04
1.914559222746107015e+00 -1.461201451734723275e-04
1.943134733533362191e+00 -1.428951110249050151e-04
1.971710244320617367e+00 -1.396509209001028711e-04
2.000285755107872543e+00 -1.363879740011892663e-04
2.028861265895128163e+00 -1.331066734325325805e-04
2.057436776682383783e+00 -1.298074307018564624e-04
2.086012287469638959e+00 -1.264906556661380451e-04
2.114587798256894136e+00 -1.231567616650379503e-04
2.143163309044149312e+00 -1.198061640185916479e-04
2.171738819831404488e+00 -1.164392820429711867e-04
2.200314330618660108e+00 -1.130565383789318591e-04
2.228889841405915284e+00 -1.096583568448310003e-04
2.257465352193170904e+00 -1.062451611644036779e-04
2.286040862980426080e+00 -1.028173781754385439e-04
2.314616373767681257e+00 -9.937544113755706926e-05
2.343191884554936433e+00 -9.591978308387157906e-05
2.371767395342192053e+00 -9.245083445887351153e-05
2.400342906129447229e+00 -8.896903100113939442e-05
2.428918416916702849e+00 -8.547481125576865965e-05
2.457493927703958025e+00 -8.196861855319213135e-05
2.486069438491213202e+00 -7.845089796109168303e-05
2.514644949278468378e+00 -7.492209110170873563e-05
2.543220460065723998e+00 -7.138264131719192641e-05
2.571795970852979174e+00 -6.783299651399732073e-05
2.600371481640234350e+00 -6.427360742619080722e-05
2.628946992427489970e+00 -6.070492447409973062e-05
2.657522503214745146e+00 -5.712740221874614010e-05
2.686098014002000767e+00 -5.354149430956136956e-05
2.714673524789255943e+00 -4.994765544840298579e-05
2.743249035576511119e+00 -4.634634120742890158e-05
2.771824546363766295e+00 -4.273800757001520838e-05
2.800400057151021915e+00 -3.912311544842916194e-05
2.828975567938277536e+00 -3.550212653746368039e-05
2.857551078725532712e+00 -3.187550320045664029e-05
2.886126589512787888e+00 -2.824370821737908700e-05
2.914702100300043064e+00 -2.460720439343483179e-05
2.943277611087298240e+00 -2.096645485187701425e-05
2.971853121874553860e+00 -1.732192571600759515e-05
3.000428632661809036e+00 -1.367408458587335149e-05
3.029004143449064657e+00 -1.002339860369277612e-05
3.057579654236319833e+00 -6.370335634980433970e-06
3.086155165023575009e+00 -2.715364846608237458e-06
3.114730675810830629e+00 9.410447960588203449e-07
3.143306186598085361e+00 4.598423219527804377e-06
3.171881697385340981e+00 8.256300431937440608e-06
3.200457208172596157e+00 1.191420456429823293e-05
3.229032718959851778e+00 1.557166381196525549e-05
3.257608229747107398e+00 1.922820704467615222e-05
3.286183740534362130e+00 2.288336250939666087e-05
3.314759251321617750e+00 2.653665887663860681e-05
3.343334762108872926e+00 3.018762329643249020e-05
3.371910272896128546e+00 3.383578208288473153e-05
3.400485783683383723e+00 3.748066234740959890e-05
3.429061294470638899e+00 4.112179100231789407e-05
3.457636805257894519e+00 4.475869495147174288e-05
3.486212316045149251e+00 4.839090128224031646e-05
3.514787826832404871e+00 5.201793736676463937e-05
3.543363337619660491e+00 5.563933131421725897e-05
3.571938848406915668e+00 5.925461155428739355e-05
3.600514359194171288e+00 6.286330574632040323e-05
3.629089869981426020e+00 6.646494196333336277e-05
3.657665380768681640e+00 7.005904882860275636e-05
3.686240891555937260e+00 7.364515513430556560e-05
3.714816402343191992e+00 7.722279032716810351e-05
3.743391913130447612e+00 8.079148456976378314e-05
3.771967423917702789e+00 8.435076817404922242e-05
3.800542934704958409e+00 8.790017211790920805e-05
3.829118445492214029e+00 9.143922827407374623e-05
3.857693956279468761e+00 9.496746919283681867e-05
3.886269467066724381e+00 9.848442803365845856e-05
3.914844977853979113e+00 1.019896387091328129e-04
3.943420488641234734e+00 1.054826361297006229e-04
3.971995999428490354e+00 1.089629560088131472e-04
4.000571510215745086e+00 1.124301352342621491e-04
4.029147021003001150e+00 1.158837112654718417e-04
4.057722531790256326e+00 1.193232227661682329e-04
4.086298042577511502e+00 1.227482094251739777e-04
4.114873553364767567e+00 1.261582116022540233e-04
4.143449064152021855e+00 1.295527710754880283e-04
4.172024574939277919e+00 1.329314308317947513e-04
4.200600085726532207e+00 1.362937350398069113e-04
4.229175596513788271e+00 1.396392292134148458e-04
4.257751107301043447e+00 1.429674601235010969e-04
4.286326618088298623e+00 1.462779757041516378e-04
4.314902128875554688e+00 1.495703254435207035e-04
4.343477639662808976e+00 1.528440596726863773e-04
4.372053150450065040e+00 1.560987303974899622e-04
4.400628661237320216e+00 1.593338915660923302e-04
4.429204172024575392e+00 1.625490977932976620e-04
4.457779682811830568e+00 1.657439054201659137e-04
4.486355193599085744e+00 1.689178723900760951e-04
4.514930704386341809e+00 1.720705583412876440e-04
4.543506215173596097e+00 1.752015238881069327e-04
4.572081725960852161e+00 1.783103313357204084e-04
4.600657236748107337e+00 1.813965449529053749e-04
4.629232747535362513e+00 1.844597297239349682e-04
4.657808258322618578e+00 1.874994530351661187e-04
4.686383769109872865e+00 1.905152830123304640e-04
4.714959279897128930e+00 1.935067893275593419e-04
4.743534790684384106e+00 1.964735449130751801e-04
4.772110301471639282e+00 1.994151211285798641e-04
4.800685812258894458e+00 2.023310933699988643e-04
4.829261323046149634e+00 2.052210366590721596e-04
4.857836833833405699e+00 2.080845282855471254e-04
4.886412344620660875e+00 2.109211485947212804e-04
4.914987855407916051e+00 2.137304770393538215e-04
4.943563366195171227e+00 2.165120947122251536e-04
4.972138876982426403e+00 2.192655868123869129e-04
5.000714387769681579e+00 2.219905354638147615e-04
5.029289898556936755e+00 2.246865280838839776e-04
5.057865409344192820e+00 2.273531504355342180e-04
5.086440920131447996e+00 2.299899905620317287e-04
5.115016430918703172e+00 2.325966382234351813e-04
5.143591941705958348e+00 2.351726810636791580e-04
5.172167452493213524e+00 2.377177124182449492e-04
5.200742963280468700e+00 2.402313196367928479e-04
5.229318474067724765e+00 2.427130966048425119e-04
5.257893984854979941e+00 2.451626342236108529e-04
5.286469495642235117e+00 2.475795251844419920e-04
5.315045006429490293e+00 2.499633611030749238e-04
5.343620517216745469e+00 2.523137333458156002e-04
5.372196028004001533e+00 2.546302364699495175e-04
5.400771538791256710e+00 2.569124616411528586e-04
5.429347049578511886e+00 2.591600009999154609e-04
5.457922560365767062e+00 2.613724460485131250e-04
5.486498071153022238e+00 2.635493862004078289e-04
5.515073581940278302e+00 2.656904151294733982e-04
5.543649092727532590e+00 2.677951164100140407e-04
5.572224603514788654e+00 2.698630804742822549e-04
5.600800114302043831e+00 2.718938936789375409e-04
5.629375625089299007e+00 2.738871376682081612e-04
5.657951135876555071e+00 2.758423968942677151e-04
5.686526646663809359e+00 2.777592497813455449e-04
5.715102157451065423e+00 2.796372724666612184e-04
5.743677668238319711e+00 2.814760411016538322e-04
5.772253179025575776e+00 2.832751244912304085e-04
5.800828689812830952e+00 2.850340926504007881e-04
5.829404200600086128e+00 2.867525074899601929e-04
5.857979711387342192e+00 2.884299293781530894e-04
5.886555222174596480e+00 2.900659111429774680e-04
5.915130732961852544e+00 2.916600026280522992e-04
5.943706243749107720e+00 2.932117448189402293e-04
5.972281754536362897e+00 2.947206767477915921e-04
6.000857265323618073e+00 2.961863242004362856e-04
6.029432776110873249e+00 2.976082046576858050e-04
6.058008286898129313e+00 2.989858283135140085e-04
6.086583797685383601e+00 3.003186877867284428e-04
6.115159308472639665e+00 3.016062686630395138e-04
6.143734819259894842e+00 3.028480352258859404e-04
6.172310330047150018e+00 3.040434391283907572e-04
6.200885840834406082e+00 3.051919073100544115e-04
6.229461351621661258e+00 3.062928494574827624e-04
6.258036862408916434e+00 3.073456444155553608e-04
6.286612373196170722e+00 3.083496396675457912e-04
6.315187883983426786e+00 3.093041439702919515e-04
6.343763394770681963e+00 3.102084317929165486e-04
6.372338905557938027e+00 3.110617172582080770e-04
6.400914416345192315e+00 3.118631715513159102e-04
6.429489927132447491e+00 3.126118798796848107e-04
6.458065437919703555e+00 3.133068683486771549e-04
6.486640948706958731e+00 3.139470636385673650e-04
6.515216459494214796e+00 3.145312832471081695e-04
6.543791970281469084e+00 3.150582349611986141e-04
6.572367481068724260e+00 3.155264657336024551e-04
6.600942991855980324e+00 3.159343713165088728e-04
6.629518502643235500e+00 3.162801441270014584e-04
6.658094013430491565e+00 3.165617690249549702e-04
6.686669524217745852e+00 3.167769615489143885e-04
6.715245035005001029e+00 3.169231546937328545e-04
6.743820545792257093e+00 3.169974629842756608e-04
6.772396056579512269e+00 3.169966323651611018e-04
6.800971567366767445e+00 3.169170334353130052e-04
6.829547078154021733e+00 3.167546421919274942e-04
6.858122588941277797e+00 3.165050321256532859e-04
6.886698099728532974e+00 3.161634539727396103e-04
6.915273610515789038e+00 3.157248958180630411e-04
6.943849121303044214e+00 3.151843311895367156e-04
6.972424632090298502e+00 3.145369658954293114e-04
7.001000142877554566e+00 3.137787167891562044e-04
7.029575653664809742e+00 3.129067964488830298e-04
7.058151164452065807e+00 3.119204749696975602e-04
7.086726675239320983e+00 3.108219050306110795e-04
7.115302186026575271e+00 3.096169495352438608e-04
7.143877696813831335e+00 3.083158032905406712e-04
7.172453207601086511e+00 3.069331405500367346e-04
7.201028718388342575e+00 3.054876944513549393e-04
7.229604229175597752e+00 3.040010858939840152e-04
7.258179739962852040e+00 3.024960510902648570e-04
7.286755250750107216e+00 3.009943765826652369e-04
7.315330761537363280e+00 2.995149702907669146e-04
7.343906272324618456e+00 2.980723926221964478e-04
7.372481783111874520e+00 2.966761946086404582e-04
7.401057293899128808e+00 2.953309746421485158e-04
7.429632804686383984e+00 2.940369862026608375e-04
7.458208315473640049e+00 2.927911168462447389e-04
7.486783826260895225e+00 2.915879522883621511e-04
7.515359337048151289e+00 2.904207073963103666e-04
7.543934847835405577e+00 2.892819980413732436e-04
7.572510358622660753e+00 2.881644108131147962e-04
7.601085869409916818e+00 2.870608693067068116e-04
7.629661380197171994e+00 2.859648506077813561e-04
7.658236890984428058e+00 2.848704910853772261e-04
7.686812401771682346e+00 2.837726065266217394e-04
7.715387912558937522e+00 2.826666700276689206e-04
7.743963423346193586e+00 2.815487790990246699e-04
7.772538934133448763e+00 2.804155686036713673e-04
7.801114444920704827e+00 2.792641646737506434e-04
7.829689955707958227e+00 2.780921175263855079e-04
7.858265466495214291e+00 2.768973401668972699e-04
7.886840977282469467e+00 2.756780640861632549e-04
7.915416488069725531e+00 2.744327867302679726e-04
7.943991998856980707e+00 2.731602414952679497e-04
7.972567509644234995e+00 2.718593524788529632e-04
8.001143020431490172e+00 2.705292162617154426e-04
8.029718531218746236e+00 2.691690725994777913e-04
8.058294042006002300e+00 2.677782847318263158e-04
8.086869552793258364e+00 2.663563261149788077e-04
8.115445063580512652e+00 2.649027573671634697e-04
8.144020574367766940e+00 2.634172215660755476e-04
8.172596085155023005e+00 2.618994303131293752e-04
8.201171595942279069e+00 2.603491544510658662e-04
8.229747106729535133e+00 2.587662225819071789e-04
8.258322617516789421e+00 2.571505081817584363e-04
8.286898128304043709e+00 2.555019251716513580e-04
8.315473639091299773e+00 2.538204225365164966e-04
8.344049149878555838e+00 2.521059823020505453e-04
8.372624660665810126e+00 2.503586161887069424e-04
8.401200171453064414e+00 2.485783637018171483e-04
8.429775682240320478e+00 2.467652882148393370e-04
8.458351193027576542e+00 2.449194727909953366e-04
8.486926703814832607e+00 2.430410182481997105e-04
8.515502214602086895e+00 2.411300449570447503e-04
8.544077725389341182e+00 2.391866891666602458e-04
8.572653236176597247e+00 2.372111025392808071e-04
8.601228746963853311e+00 2.352034503725314958e-04
8.629804257751109375e+00 2.331639134559790056e-04
8.658379768538363663e+00 2.310926790909374978e-04
8.686955279325617951e+00 2.289899506153093964e-04
8.715530790112874016e+00 2.268559375390064535e-04
8.744106300900130080e+00 2.246908621839694743e-04
8.772681811687386144e+00 2.224949586821719518e-04
8.801257322474640432e+00 2.202684661283055767e-04
8.829832833261894720e+00 2.180116296835225788e-04
8.858408344049150784e+00 2.157247051604928062e-04
8.886983854836406849e+00 2.134079577508103936e-04
8.915559365623661137e+00 2.110616579667027324e-04
8.944134876410915425e+00 2.086860824940183715e-04
8.972710387198171489e+00 2.062815189895060195e-04
9.001285897985427553e+00 2.038482540430927592e-04
9.029861408772683617e+00 2.013865838729266369e-04
9.058436919559937905e+00 1.988968133759718825e-04
9.087012430347192193e+00 1.963792485434942418e-04
9.115587941134448258e+00 1.938342027449560382e-04
9.144163451921704322e+00 1.912619960316535553e-04
9.172738962708960386e+00 1.886629511113651530e-04
9.201314473496214674e+00 1.860373981759723991e-04
9.229889984283468962e+00 1.833856719539195561e-04
9.258465495070725026e+00 1.807081090675401202e-04
9.287041005857981091e+00 1.780050552715987814e-04
9.315616516645237155e+00 1.752768546742900337e-04
9.344192027432491443e+00 1.725238584365172928e-04
9.372767538219745731e+00 1.697464245027340414e-04
9.401343049007001795e+00 1.669449137999536536e-04
9.429918559794257860e+00 1.641196924170961315e-04
9.458494070581512148e+00 1.612711276353304948e-04
9.487069581368768212e+00 1.583995919514356084e-04
9.515645092156022500e+00 1.555054634914771958e-04
9.544220602943278564e+00 1.525891185900742151e-04
9.572796113730534628e+00 1.496509421623184099e-04
9.601371624517788916e+00 1.466913202994571321e-04
9.629947135305044981e+00 1.437106441636080523e-04
9.658522646092299269e+00 1.407093055103187686e-04
9.687098156879555333e+00 1.376877011110476889e-04
9.715673667666811397e+00 1.346462318915357702e-04
9.744249178454065685e+00 1.315853026010283086e-04
9.772824689241321749e+00 1.285053193965055582e-04
9.801400200028576037e+00 1.254066914834112460e-04
9.829975710815832102e+00 1.222898322616973107e-04
9.858551221603088166e+00 1.191551560424920585e-04
9.887126732390342454e+00 1.160030828490117837e-04
9.915702243177598518e+00 1.128340331264985442e-04
9.944277753964852806e+00 1.096484300774391613e-04
9.972853264752108871e+00 1.064467000920440602e-04
1.000142877553936316e+01 1.032292728746648098e-04
1.003000428632661922e+01 9.999658004734546495e-05
1.005857979711387351e+01 9.674905638934904633e-05
1.008715530790112958e+01 9.348713811081200661e-05
1.011573081868838564e+01 9.021126475256268122e-05
1.014430632947563993e+01 8.692187824817423491e-05
1.017288184026289599e+01 8.361942221480160033e-05
1.020145735105015028e+01 8.030434155235746435e-05
1.023003286183740634e+01 7.697708384237758519e-05
1.025860837262466241e+01 7.363810010201335041e-05
1.028718388341191670e+01 7.028784368242779366e-05
1.031575939419917276e+01 6.692676906137739600e-05
1.034433490498642705e+01 6.355533237102716870e-05
1.037291041577368311e+01 6.017399102897429228e-05
1.040148592656093740e+01 5.678320510078583043e-05
1.043006143734819346e+01 5.338343720382473893e-05
1.045863694813544953e+01 4.997515110943777638e-05
1.048721245892270382e+01 4.655881281609023568e-05
1.051578796970995988e+01 4.313489038774985550e-05
1.054436348049721417e+01 3.970385291930641277e-05
1.057293899128447023e+01 3.626617026920502749e-05
1.060151450207172630e+01 3.282231463212888846e-05
1.063009001285898059e+01 2.937276016014107389e-05
1.065866552364623665e+01 2.591798235205239090e-05
1.068724103443349094e+01 2.245845790430140478e-05
1.071581654522074700e+01 1.899466526467428291e-05
1.074439205600800307e+01 1.552708410366568446e-05
1.077296756679525735e+01 1.205619552121223007e-05
1.080154307758251342e+01 8.582481920033217294e-06
1.083011858836976771e+01 5.106426615709613309e-06
1.085869409915702377e+01 1.628513864818143462e-06
1.088726960994427984e+01 -1.850770652388846970e-06
1.091584512073153412e+01 -5.330939954707684117e-06
1.094442063151878841e+01 -8.811506139916624086e-06
1.097299614230604448e+01 -1.229198025388186173e-05
1.100157165309330054e+01 -1.577187213544559689e-05
1.103014716388055660e+01 -1.925069074535184051e-05
1.105872267466781089e+01 -2.272794423634672919e-05
1.108729818545506518e+01 -2.620313989124363534e-05
1.111587369624232124e+01 -2.967578428680987666e-05
1.114444920702957731e+01 -3.314538272809191698e-05
1.117302471781683337e+01 -3.661144013496108927e-05
1.120160022860408766e+01 -4.007346049690352916e-05
1.123017573939134195e+01 -4.353094726493753563e-05
1.125875125017859801e+01 -4.698340295460262851e-05
1.128732676096585408e+01 -5.043033004167017820e-05
1.131590227175311014e+01 -5.387122990631766363e-05
