# Time(fs)    f(t)(a.u.)
0.000000000000000000e+00 -1.899168931953183152e-04
2.857551078725532531e-02 -1.915050701079474595e-04
5.715102157451065062e-02 -1.930698323135484088e-04
8.572653236176597247e-02 -1.946109957285405091e-04
1.143020431490213012e-01 -1.961283790255695055e-04
1.428775539362766300e-01 -1.976218039233323205e-04
1.714530647235319449e-01 -1.990910952176107957e-04
2.000285755107872598e-01 -2.005360801606123524e-04
2.286040862980426025e-01 -2.019565896154363791e-04
2.571795970852979729e-01 -2.033524572794819538e-04
2.857551078725532601e-01 -2.047235187576011911e-04
3.143306186598085472e-01 -2.060696139742864731e-04
3.429061294470638899e-01 -2.073905846857777716e-04
3.714816402343192325e-01 -2.086862766735090007e-04
4.000571510215745197e-01 -2.099565380989192032e-04
4.286326618088298623e-01 -2.112012204987653776e-04
4.572081725960852050e-01 -2.124201788702049186e-04
4.857836833833405477e-01 -2.136132701309792199e-04
5.143591941705959458e-01 -2.147803547516770090e-04
5.429347049578511220e-01 -2.159212970093643091e-04
5.715102157451065201e-01 -2.170359641765500403e-04
6.000857265323618073e-01 -2.181242265582389263e-04
6.286612373196170944e-01 -2.191859575545321358e-04
6.572367481068724926e-01 -2.202210338127446687e-04
6.858122588941277797e-01 -2.212293349105342341e-04
7.143877696813831779e-01 -2.222107442395895274e-04
7.429632804686384651e-01 -2.231651482574042598e-04
7.715387912558937522e-01 -2.240924361613143225e-04
8.001143020431490394e-01 -2.249925010024125469e-04
8.286898128304044375e-01 -2.258652388564410618e-04
8.572653236176597247e-01 -2.267105492942879277e-04
8.858408344049151228e-01 -2.275283349140528244e-04
9.144163451921704100e-01 -2.283185020021859192e-04
9.429918559794256971e-01 -2.290809599500976789e-04
9.715673667666810953e-01 -2.298156217378611134e-04
1.000142877553936271e+00 -2.305224038085301112e-04
1.028718388341191892e+00 -2.312012258696159500e-04
1.057293899128447068e+00 -2.318520105519409963e-04
1.085869409915702244e+00 -2.324746844045285038e-04
1.114444920702957642e+00 -2.330691773430377438e-04
1.143020431490213040e+00 -2.336354224461220240e-04
1.171595942277468216e+00 -2.341733558163067662e-04
1.200171453064723615e+00 -2.346829182924589196e-04
1.228746963851979013e+00 -2.351640535717851646e-04
1.257322474639234189e+00 -2.356167084602937281e-04
1.285897985426489587e+00 -2.360408334886449067e-04
1.314473496213744985e+00 -2.364363825571309905e-04
1.343049007001000383e+00 -2.368033130216614637e-04
1.371624517788255559e+00 -2.371415862530073875e-04
1.400200028575510958e+00 -2.374511664736602291e-04
1.428775539362766356e+00 -2.377320214299882297e-04
1.457351050150021532e+00 -2.379841222609846245e-04
1.485926560937276930e+00 -2.382074441143491015e-04
1.514502071724532328e+00 -2.384019659684393346e-04
1.543077582511787504e+00 -2.385676691307722695e-04
1.571653093299042681e+00 -2.387045394349439353e-04
1.600228604086298079e+00 -2.388125660674186911e-04
1.628804114873553699e+00 -2.388917412221658939e-04
1.657379625660808875e+00 -2.389420609531167031e-04
1.685955136448064273e+00 -2.389635249047522547e-04
1.714530647235319449e+00 -2.389561363761391079e-04
1.743106158022574625e+00 -2.389199018694150123e-04
1.771681668809830246e+00 -2.388548315166376499e-04
1.800257179597085644e+00 -2.387609389303935832e-04
1.828832690384340820e+00 -2.386382414437576477e-04
1.857408201171595996e+00 -2.384867595820831516e-04
1.885983711958851394e+00 -2.383065176545152866e-04
1.914559222746107015e+00 -2.380975439044815875e-04
1.943134733533362191e+00 -2.378598689993956228e-04
1.971710244320617367e+00 -2.375935282649812652e-04
2.000285755107872543e+00 -2.372985602524793278e-04
2.028861265895128163e+00 -2.369750062623712371e-04
2.057436776682383783e+00 -2.366229123967632025e-04
2.086012287469638959e+00 -2.362423274965033920e-04
2.114587798256894136e+00 -2.358333037402740248e-04
2.143163309044149312e+00 -2.353958963422467959e-04
2.171738819831404488e+00 -2.349301646230623087e-04
2.200314330618660108e+00 -2.344361725666264918e-04
2.228889841405915284e+00 -2.339139858995827384e-04
2.257465352193170904e+00 -2.333636739842141099e-04
2.286040862980426080e+00 -2.327853103432985871e-04
2.314616373767681257e+00 -2.321789717081677721e-04
2.343191884554936433e+00 -2.315447378810703500e-04
2.371767395342192053e+00 -2.308826927708682757e-04
2.400342906129447229e+00 -2.301929240662422475e-04
2.428918416916702849e+00 -2.294755217300294939e-04
2.457493927703958025e+00 -2.287305796598219465e-04
2.486069438491213202e+00 -2.279581947762062875e-04
2.514644949278468378e+00 -2.271584682451232673e-04
2.543220460065723998e+00 -2.263315039551403124e-04
2.571795970852979174e+00 -2.254774090256837890e-04
2.600371481640234350e+00 -2.245962934843055724e-04
2.628946992427489970e+00 -2.236882716297270562e-04
2.657522503214745146e+00 -2.227534615162503329e-04
2.686098014002000767e+00 -2.217919837570119868e-04
2.714673524789255943e+00 -2.208039619255789245e-04
2.743249035576511119e+00 -2.197895230827847616e-04
2.771824546363766295e+00 -2.187487981505799436e-04
2.800400057151021915e+00 -2.176819202950087430e-04
2.828975567938277536e+00 -2.165890271424159691e-04
2.857551078725532712e+00 -2.154702590760808692e-04
2.886126589512787888e+00 -2.143257589844274364e-04
2.914702100300043064e+00 -2.131556739280598706e-04
2.943277611087298240e+00 -2.119601536415606524e-04
2.971853121874553860e+00 -2.107393506119437099e-04
3.000428632661809036e+00 -2.094934209319925444e-04
3.029004143449064657e+00 -2.082225241623561918e-04
3.057579654236319833e+00 -2.069268224782614047e-04
3.086155165023575009e+00 -2.056064812990003794e-04
3.114730675810830629e+00 -2.042616693899474854e-04
3.143306186598085361e+00 -2.028925577178251915e-04
3.171881697385340981e+00 -2.014993205405838522e-04
3.200457208172596157e+00 -2.000821354623155452e-04
3.229032718959851778e+00 -1.986411835186367540e-04
3.257608229747107398e+00 -1.971766481126740946e-04
3.286183740534362130e+00 -1.956887151632771100e-04
3.314759251321617750e+00 -1.941775737610644515e-04
3.343334762108872926e+00 -1.926434164773432184e-04
3.371910272896128546e+00 -1.910864385643981287e-04
3.400485783683383723e+00 -1.895068375809988187e-04
3.429061294470638899e+00 -1.879048139263762439e-04
3.457636805257894519e+00 -1.862805715088228361e-04
3.486212316045149251e+00 -1.846343166092760766e-04
3.514787826832404871e+00 -1.829662579195076740e-04
3.543363337619660491e+00 -1.812766071097161955e-04
3.571938848406915668e+00 -1.795655788208138086e-04
3.600514359194171288e+00 -1.778333902168793335e-04
3.629089869981426020e+00 -1.760802613406490266e-04
3.657665380768681640e+00 -1.743064143028293697e-04
3.686240891555937260e+00 -1.725120736331952080e-04
3.714816402343191992e+00 -1.706974674081543450e-04
3.743391913130447612e+00 -1.688628256219254107e-04
3.771967423917702789e+00 -1.670083807045505506e-04
3.800542934704958409e+00 -1.651343674860953140e-04
3.829118445492214029e+00 -1.632410236535829760e-04
3.857693956279468761e+00 -1.613285890369128036e-04
3.886269467066724381e+00 -1.593973059077185683e-04
3.914844977853979113e+00 -1.574474189898717271e-04
3.943420488641234734e+00 -1.554791751988815051e-04
3.971995999428490354e+00 -1.534928238473525343e-04
4.000571510215745086e+00 -1.514886166907921522e-04
4.029147021003001150e+00 -1.494668076123426513e-04
4.057722531790256326e+00 -1.474276522181090527e-04
4.086298042577511502e+00 -1.453714090476788815e-04
4.114873553364767567e+00 -1.432983385299303346e-04
4.143449064152021855e+00 -1.412087031648056592e-04
4.172024574939277919e+00 -1.391027675420537834e-04
4.200600085726532207e+00 -1.369807979143655274e-04
4.229175596513788271e+00 -1.348430629346100750e-04
4.257751107301043447e+00 -1.326898333614229633e-04
4.286326618088298623e+00 -1.305213819462793521e-04
4.314902128875554688e+00 -1.283379831687351874e-04
4.343477639662808976e+00 -1.261399133195731750e-04
4.372053150450065040e+00 -1.239274506664214117e-04
4.400628661237320216e+00 -1.217008751116424158e-04
4.429204172024575392e+00 -1.194604686228362941e-04
4.457779682811830568e+00 -1.172065150324044764e-04
4.486355193599085744e+00 -1.149392993192381286e-04
4.514930704386341809e+00 -1.126591083419014428e-04
4.543506215173596097e+00 -1.103662307466123896e-04
4.572081725960852161e+00 -1.080609567115111932e-04
4.600657236748107337e+00 -1.057435781375276184e-04
4.629232747535362513e+00 -1.034143883459752602e-04
4.657808258322618578e+00 -1.010736821563097237e-04
4.686383769109872865e+00 -9.872175575627989679e-05
4.714959279897128930e+00 -9.635890698668782262e-05
4.743534790684384106e+00 -9.398543495756314669e-05
4.772110301471639282e+00 -9.160164000144809773e-05
4.800685812258894458e+00 -8.920782388873982588e-05
4.829261323046149634e+00 -8.680428952277567201e-05
4.857836833833405699e+00 -8.439134117876603760e-05
4.886412344620660875e+00 -8.196928418990712215e-05
4.914987855407916051e+00 -7.953842512432328696e-05
4.943563366195171227e+00 -7.709907194409259851e-05
4.972138876982426403e+00 -7.465153345902939247e-05
5.000714387769681579e+00 -7.219611953648482087e-05
5.029289898556936755e+00 -6.973314091137220209e-05
5.057865409344192820e+00 -6.726290937376466599e-05
5.086440920131447996e+00 -6.478573768588112753e-05
5.115016430918703172e+00 -6.230193952847961800e-05
5.143591941705958348e+00 -5.981182933836222686e-05
5.172167452493213524e+00 -5.731572228776983269e-05
5.200742963280468700e+00 -5.481393437990345204e-05
5.229318474067724765e+00 -5.230678248141629449e-05
5.257893984854979941e+00 -4.979458411832057092e-05
5.286469495642235117e+00 -4.727765735116031589e-05
5.315045006429490293e+00 -4.475632085337121190e-05
5.343620517216745469e+00 -4.223089386067651691e-05
5.372196028004001533e+00 -3.970169613852261159e-05
5.400771538791256710e+00 -3.716904798041148966e-05
5.429347049578511886e+00 -3.463327011639532097e-05
5.457922560365767062e+00 -3.209468370151198526e-05
5.486498071153022238e+00 -2.955361023508163641e-05
5.515073581940278302e+00 -2.701037148342247100e-05
5.543649092727532590e+00 -2.446528952858512137e-05
5.572224603514788654e+00 -2.191868670701775640e-05
5.600800114302043831e+00 -1.937088554601219662e-05
5.629375625089299007e+00 -1.682220868436226351e-05
5.657951135876555071e+00 -1.427297890581388643e-05
5.686526646663809359e+00 -1.172351907123819742e-05
5.715102157451065423e+00 -9.174152084865984052e-06
5.743677668238319711e+00 -6.625200840573648176e-06
5.772253179025575776e+00 -4.076988162722428614e-06
5.800828689812830952e+00 -1.529836792112012487e-06
5.829404200600086128e+00 1.015930667189333095e-06
5.857979711387342192e+00 3.559991775431912824e-06
5.886555222174596480e+00 6.102024311848075616e-06
5.915130732961852544e+00 8.641706343430928460e-06
5.943706243749107720e+00 1.117871622601123716e-05
5.972281754536362897e+00 1.371273267522104433e-05
6.000857265323618073e+00 1.624343475711586730e-05
6.029432776110873249e+00 1.877050194239688889e-05
6.058008286898129313e+00 2.129361417451607907e-05
6.086583797685383601e+00 2.381245192015138802e-05
6.115159308472639665e+00 2.632669618390052487e-05
6.143734819259894842e+00 2.883602858231893527e-05
6.172310330047150018e+00 3.134013131794204972e-05
6.200885840834406082e+00 3.383868728934388950e-05
6.229461351621661258e+00 3.633138009047011976e-05
6.258036862408916434e+00 3.881789414236641453e-05
6.286612373196170722e+00 4.129791461611183827e-05
6.315187883983426786e+00 4.377112748667099160e-05
6.343763394770681963e+00 4.623721962527980675e-05
6.372338905557938027e+00 4.869587881953619331e-05
6.400914416345192315e+00 5.114679384289688247e-05
6.429489927132447491e+00 5.358965444706112360e-05
6.458065437919703555e+00 5.602415142247408507e-05
6.486640948706958731e+00 5.844997663827854553e-05
6.515216459494214796e+00 6.086682305309397092e-05
6.543791970281469084e+00 6.327438482938370942e-05
6.572367481068724260e+00 6.567235727569538785e-05
6.600942991855980324e+00 6.806043701749244770e-05
6.629518502643235500e+00 7.043832188632543376e-05
6.658094013430491565e+00 7.280571103649418751e-05
6.686669524217745852e+00 7.516230502950994755e-05
6.715245035005001029e+00 7.750780584076532068e-05
6.743820545792257093e+00 7.984191684264342853e-05
6.772396056579512269e+00 8.216434288476805864e-05
6.800971567366767445e+00 8.447479034775588747e-05
6.829547078154021733e+00 8.677296714972917437e-05
6.858122588941277797e+00 8.905858268003996007e-05
6.886698099728532974e+00 9.133134810909109664e-05
6.915273610515789038e+00 9.359097623474194722e-05
6.943849121303044214e+00 9.583718154592679446e-05
6.972424632090298502e+00 9.806968033679747685e-05
7.001000142877554566e+00 1.002881906640404092e-04
7.029575653664809742e+00 1.024924323333290969e-04
7.058151164452065807e+00 1.046821269421768205e-04
7.086726675239320983e+00 1.068569980703102041e-04
7.115302186026575271e+00 1.090167712822376090e-04
7.143877696813831335e+00 1.111611740182418890e-04
7.172453207601086511e+00 1.132899357470477112e-04
7.201028718388342575e+00 1.154027879995351614e-04
7.229604229175597752e+00 1.174994644611895958e-04
7.258179739962852040e+00 1.195797007383426108e-04
7.286755250750107216e+00 1.216432346366692392e-04
7.315330761537363280e+00 1.236898062791047211e-04
7.343906272324618456e+00 1.257191578738986535e-04
7.372481783111874520e+00 1.277310338754937601e-04
7.401057293899128808e+00 1.297251809264826671e-04
7.429632804686383984e+00 1.317013480438378008e-04
7.458208315473640049e+00 1.336592865607369744e-04
7.486783826260895225e+00 1.355987502383919851e-04
7.515359337048151289e+00 1.375194954440089347e-04
7.543934847835405577e+00 1.394212809589070784e-04
7.572510358622660753e+00 1.413038679086922470e-04
7.601085869409916818e+00 1.431670198615024234e-04
7.629661380197171994e+00 1.450105029120056825e-04
7.658236890984428058e+00 1.468340857503968656e-04
7.686812401771682346e+00 1.486375396780657929e-04
7.715387912558937522e+00 1.504206387375915319e-04
7.743963423346193586e+00 1.521831596506287255e-04
7.772538934133448763e+00 1.539248817453434592e-04
7.801114444920704827e+00 1.556455871975967172e-04
7.829689955707958227e+00 1.573450606172592644e-04
7.858265466495214291e+00 1.590230895424239027e-04
7.886840977282469467e+00 1.606794645184728111e-04
7.915416488069725531e+00 1.623139789493169846e-04
7.943991998856980707e+00 1.639264290397945522e-04
7.972567509644234995e+00 1.655166138986735331e-04
8.001143020431490172e+00 1.670843352471944137e-04
8.029718531218746236e+00 1.686293980112683129e-04
8.058294042006002300e+00 1.701516100687560425e-04
8.086869552793258364e+00 1.716507822990266901e-04
8.115445063580512652e+00 1.731267286121060693e-04
8.144020574367766940e+00 1.745792659680385646e-04
8.172596085155023005e+00 1.760082145404275912e-04
8.201171595942279069e+00 1.774133974953457651e-04
8.229747106729535133e+00 1.787946410418363359e-04
8.258322617516789421e+00 1.801517745764237295e-04
8.286898128304043709e+00 1.814846309771528366e-04
8.315473639091299773e+00 1.827930461560963566e-04
8.344049149878555838e+00 1.840768592425866994e-04
8.372624660665810126e+00 1.853359125376934536e-04
8.401200171453064414e+00 1.865700514767958324e-04
8.429775682240320478e+00 1.877791249189838542e-04
8.458351193027576542e+00 1.889629851607855073e-04
8.486926703814832607e+00 1.901214875730232879e-04
8.515502214602086895e+00 1.912544909715015683e-04
8.544077725389341182e+00 1.923618575842218946e-04
8.572653236176597247e+00 1.934434530646179787e-04
8.601228746963853311e+00 1.944991464043598496e-04
8.629804257751109375e+00 1.955288098793203611e-04
8.658379768538363663e+00 1.965323195301095331e-04
8.686955279325617951e+00 1.975095548722680149e-04
8.715530790112874016e+00 1.984603987789485772e-04
8.744106300900130080e+00 1.993847375348432708e-04
8.772681811687386144e+00 2.002824608091677381e-04
8.801257322474640432e+00 2.011534619554643905e-04
8.829832833261894720e+00 2.019976380252332972e-04
8.858408344049150784e+00 2.028148897892189761e-04
8.886983854836406849e+00 2.036051214060505905e-04
8.915559365623661137e+00 2.043682405728601548e-04
8.944134876410915425e+00 2.051041583789128559e-04
8.972710387198171489e+00 2.058127896513940378e-04
9.001285897985427553e+00 2.064940530266558120e-04
9.029861408772683617e+00 2.071478704002731243e-04
9.058436919559937905e+00 2.077741673818112988e-04
9.087012430347192193e+00 2.083728734907811333e-04
9.115587941134448258e+00 2.089439220461807890e-04
9.144163451921704322e+00 2.094872496851450455e-04
9.172738962708960386e+00 2.100027969455897474e-04
9.201314473496214674e+00 2.104905077661320910e-04
9.229889984283468962e+00 2.109503301704553524e-04
9.258465495070725026e+00 2.113822162594273071e-04
9.287041005857981091e+00 2.117861211915419311e-04
9.315616516645237155e+00 2.121620043931458466e-04
9.344192027432491443e+00 2.125098286601961742e-04
9.372767538219745731e+00 2.128295603849710298e-04
9.401343049007001795e+00 2.131211699261130650e-04
9.429918559794257860e+00 2.133846314924288531e-04
9.458494070581512148e+00 2.136199230467373405e-04
9.487069581368768212e+00 2.138270261317564108e-04
9.515645092156022500e+00 2.140059259521141051e-04
9.544220602943278564e+00 2.141566113813386904e-04
9.572796113730534628e+00 2.142790754735691527e-04
9.601371624517788916e+00 2.143733152619528169e-04
9.629947135305044981e+00 2.144393314423122059e-04
9.658522646092299269e+00 2.144771281540910175e-04
9.687098156879555333e+00 2.144867130792232793e-04
9.715673667666811397e+00 2.144680978293676745e-04
9.744249178454065685e+00 2.144212982153816550e-04
9.772824689241321749e+00 2.143463336827423774e-04
9.801400200028576037e+00 2.142432274205336871e-04
9.829975710815832102e+00 2.141120063059246130e-04
9.858551221603088166e+00 2.139527013971416751e-04
9.887126732390342454e+00 2.137653473911694168e-04
9.915702243177598518e+00 2.135499824710066744e-04
9.944277753964852806e+00 2.133066482019040382e-04
9.972853264752108871e+00 2.130353906852476987e-04
1.000142877553936316e+01 2.127362594108128625e-04
1.003000428632661922e+01 2.124093078648432568e-04
1.005857979711387351e+01 2.120545929607052082e-04
1.008715530790112958e+01 2.116721755505587789e-04
1.011573081868838564e+01 2.112621200857302706e-04
1.014430632947563993e+01 2.108244947921411778e-04
1.017288184026289599e+01 2.103593715491388098e-04
1.020145735105015028e+01 2.098668259725089348e-04
1.023003286183740634e+01 2.093469374400710287e-04
1.025860837262466241e+01 2.087997888190951036e-04
1.028718388341191670e+01 2.082254667129509258e-04
1.031575939419917276e+01 2.076240615841598938e-04
1.034433490498642705e+01 2.069956674759115302e-04
1.037291041577368311e+01 2.063403822813276935e-04
1.040148592656093740e+01 2.056583070098567750e-04
1.043006143734819346e+01 2.049495467638003381e-04
1.045863694813544953e+01 2.042142099842947432e-04
1.048721245892270382e+01 2.034524084180934695e-04
1.051578796970995988e+01 2.026642579175649871e-04
1.054436348049721417e+01 2.018498779225698315e-04
1.057293899128447023e+01 2.010093912267381930e-04
1.060151450207172630e+01 2.001429239936488419e-04
1.063009001285898059e+01 1.992506058920954929e-04
1.065866552364623665e+01 1.983325701300554008e-04
1.068724103443349094e+01 1.973889535205440994e-04
1.071581654522074700e+01 1.964198962576932286e-04
1.074439205600800307e+01 1.954255421332814298e-04
1.077296756679525735e+01 1.944060382928471326e-04
1.080154307758251342e+01 1.933615354222596912e-04
1.083011858836976771e+01 1.922921874835439296e-04
1.085869409915702377e+01 1.911981515612601323e-04
1.088726960994427984e+01 1.900795883985470969e-04
1.091584512073153412e+01 1.889366618828153288e-04
1.094442063151878841e+01 1.877695392184739734e-04
1.097299614230604448e+01 1.865783908839735059e-04
1.100157165309330054e+01 1.853633906212347876e-04
1.103014716388055660e+01 1.841247157750215571e-04
1.105872267466781089e+01 1.828625465929158112e-04
1.108729818545506518e+01 1.815770662218578447e-04
1.111587369624232124e+01 1.802684611262691432e-04
1.114444920702957731e+01 1.789369211585871346e-04
1.117302471781683337e+01 1.775826391117045532e-04
1.120160022860408766e+01 1.762058109227977677e-04
1.123017573939134195e+01 1.748066355580365713e-04
1.125875125017859801e+01 1.733853150573219952e-04
