# Time(fs)    f(t)(a.u.)
0.000000000000000000e+00 -2.174949390036827945e-04
5.715102157451065062e-02 -2.168497750343796886e-04
1.143020431490213012e-01 -2.160910657101497933e-04
1.714530647235319449e-01 -2.152192314041909756e-04
2.286040862980426025e-01 -2.142347576295387725e-04
2.857551078725532601e-01 -2.131381865660384204e-04
3.429061294470638899e-01 -2.119301170938668415e-04
4.000571510215745197e-01 -2.106112093157748975e-04
4.572081725960852050e-01 -2.091821839650682263e-04
5.143591941705959458e-01 -2.076438168432158469e-04
5.715102157451065201e-01 -2.059969450970271796e-04
6.286612373196170944e-01 -2.042424604906607538e-04
6.858122588941277797e-01 -2.023813127787553012e-04
7.429632804686384651e-01 -2.004145075043300874e-04
8.001143020431490394e-01 -1.983431068408843332e-04
8.572653236176597247e-01 -1.961682284101557892e-04
9.144163451921704100e-01 -1.938910440171347086e-04
9.715673667666810953e-01 -1.915127807325825253e-04
1.028718388341191892e+00 -1.890347172103280262e-04
1.085869409915702244e+00 -1.864581861394617773e-04
1.143020431490213040e+00 -1.837845716328884182e-04
1.200171453064723615e+00 -1.810153096783796744e-04
1.257322474639234189e+00 -1.781518859453925239e-04
1.314473496213744985e+00 -1.751958362259144197e-04
1.371624517788255559e+00 -1.721487454511208949e-04
1.428775539362766356e+00 -1.690122460727551228e-04
1.485926560937276930e+00 -1.657880179088800190e-04
1.543077582511787504e+00 -1.624777866167213683e-04
1.600228604086298079e+00 -1.590833237462312339e-04
1.657379625660808875e+00 -1.556064446366846224e-04
1.714530647235319449e+00 -1.520490079235289058e-04
1.771681668809830246e+00 -1.484129155757391949e-04
1.828832690384340820e+00 -1.447001096117683317e-04
1.885983711958851394e+00 -1.409125729886722518e-04
1.943134733533362191e+00 -1.370523271818377224e-04
2.000285755107872543e+00 -1.331214329366111097e-04
2.057436776682383783e+00 -1.291219873092220346e-04
2.114587798256894136e+00 -1.250561233274823038e-04
2.171738819831404488e+00 -1.209260083055165263e-04
2.228889841405915284e+00 -1.167338436060691784e-04
2.286040862980426080e+00 -1.124818628805998404e-04
2.343191884554936433e+00 -1.081723309235986302e-04
2.400342906129447229e+00 -1.038075425101248810e-04
2.457493927703958025e+00 -9.938982089106865509e-05
2.514644949278468378e+00 -9.492151724907546149e-05
2.571795970852979174e+00 -9.040500924969053099e-05
2.628946992427489970e+00 -8.584269832243748258e-05
2.686098014002000767e+00 -8.123701034888682212e-05
2.743249035576511119e+00 -7.659039303195340172e-05
2.800400057151021915e+00 -7.190531555461954054e-05
2.857551078725532712e+00 -6.718426673774079442e-05
2.914702100300043064e+00 -6.242975429518065917e-05
2.971853121874553860e+00 -5.764430196149853596e-05
3.029004143449064657e+00 -5.283044958122935542e-05
3.086155165023575009e+00 -4.799075174375159146e-05
3.143306186598085361e+00 -4.312777518120368040e-05
3.200457208172596157e+00 -3.824409884505270942e-05
3.257608229747107398e+00 -3.334231154540662656e-05
3.314759251321617750e+00 -2.842501103667655017e-05
3.371910272896128546e+00 -2.349480246647348822e-05
3.429061294470638899e+00 -1.855429689849812561e-05
3.486212316045149251e+00 -1.360611022541228501e-05
3.543363337619660491e+00 -8.652861566984174684e-06
3.600514359194171288e+00 -3.697171688787720888e-06
3.657665380768681640e+00 1.258338044747350750e-06
3.714816402343191992e+00 6.211047234304334218e-06
3.771967423917702789e+00 1.115833801483540784e-05
3.829118445492214029e+00 1.609759617280171999e-05
3.886269467066724381e+00 2.102621264638892946e-05
3.943420488641234734e+00 2.594158485194231499e-05
4.000571510215745086e+00 3.084111821705774363e-05
4.057722531790256326e+00 3.572222736333662127e-05
4.114873553364767567e+00 4.058233753241003382e-05
4.172024574939277919e+00 4.541888635206931381e-05
4.229175596513788271e+00 5.022932528929811163e-05
4.286326618088298623e+00 5.501112010893586439e-05
4.343477639662808976e+00 5.976175241878400873e-05
4.400628661237320216e+00 6.447872153810384351e-05
4.457779682811830568e+00 6.915954582169549203e-05
4.514930704386341809e+00 7.380176334577614973e-05
4.572081725960852161e+00 7.840293381136024078e-05
4.629232747535362513e+00 8.296063995683493938e-05
4.686383769109872865e+00 8.747248817019418810e-05
4.743534790684384106e+00 9.193611038483340346e-05
4.800685812258894458e+00 9.634916514732217720e-05
4.857836833833405699e+00 1.007093388356649846e-04
4.914987855407916051e+00 1.050143464221602800e-04
4.972138876982426403e+00 1.092619333909893465e-04
5.029289898556936755e+00 1.134498766334879051e-04
5.086440920131447996e+00 1.175759858149370049e-04
5.143591941705958348e+00 1.216381041553887441e-04
5.200742963280468700e+00 1.256341100500106187e-04
5.257893984854979941e+00 1.295619175946748189e-04
5.315045006429490293e+00 1.334194779680550997e-04
5.372196028004001533e+00 1.372047808972452602e-04
5.429347049578511886e+00 1.409158556336323617e-04
5.486498071153022238e+00 1.445507711600007824e-04
5.543649092727532590e+00 1.481076379276962058e-04
5.600800114302043831e+00 1.515846087014886725e-04
5.657951135876555071e+00 1.549798800523550677e-04
5.715102157451065423e+00 1.582916923250362142e-04
5.772253179025575776e+00 1.615183308971703490e-04
5.829404200600086128e+00 1.646581272335973639e-04
5.886555222174596480e+00 1.677094602069856819e-04
5.943706243749107720e+00 1.706707562161129132e-04
6.000857265323618073e+00 1.735404903384004120e-04
6.058008286898129313e+00 1.763171869780732690e-04
6.115159308472639665e+00 1.789994202744123024e-04
6.172310330047150018e+00 1.815858159432990953e-04
6.229461351621661258e+00 1.840750508157807438e-04
6.286612373196170722e+00 1.864658544834829916e-04
6.343763394770681963e+00 1.887570092431033620e-04
6.400914416345192315e+00 1.909473507275644632e-04
6.458065437919703555e+00 1.930357693790316325e-04
6.515216459494214796e+00 1.950212099808614494e-04
6.572367481068724260e+00 1.969026722729149011e-04
6.629518502643235500e+00 1.986792122682613717e-04
6.686669524217745852e+00 2.003499420395044299e-04
6.743820545792257093e+00 2.019140305289186723e-04
6.800971567366767445e+00 2.033707037668362023e-04
6.858122588941277797e+00 2.047192448647617842e-04
6.915273610515789038e+00 2.059589956884474180e-04
6.972424632090298502e+00 2.070893554994002986e-04
7.029575653664809742e+00 2.081097823431193200e-04
7.086726675239320983e+00 2.090197925550337399e-04
7.143877696813831335e+00 2.098189620255435533e-04
7.201028718388342575e+00 2.105069258332670733e-04
7.258179739962852040e+00 2.110833778288906631e-04
7.315330761537363280e+00 2.115480713484153364e-04
7.372481783111874520e+00 2.119008203284011556e-04
7.429632804686383984e+00 2.121414971657144407e-04
7.486783826260895225e+00 2.122700345753906451e-04
7.543934847835405577e+00 2.122864243542250246e-04
7.601085869409916818e+00 2.121907183893408935e-04
7.658236890984428058e+00 2.119830280552035661e-04
7.715387912558937522e+00 2.116635236338536806e-04
7.772538934133448763e+00 2.112324360556655609e-04
7.829689955707958227e+00 2.106900545891640035e-04
7.886840977282469467e+00 2.100367266557940553e-04
7.943991998856980707e+00 2.092728603070385376e-04
8.001143020431490172e+00 2.083989210481944929e-04
8.058294042006002300e+00 2.074154328051682698e-04
8.115445063580512652e+00 2.063229775989426011e-04
8.172596085155023005e+00 2.051221953262144233e-04
8.229747106729535133e+00 2.038137824773296296e-04
8.286898128304043709e+00 2.023984929753859182e-04
8.344049149878555838e+00 2.008771368828702946e-04
8.401200171453064414e+00 1.992505793786189929e-04
8.458351193027576542e+00 1.975197428413000863e-04
8.515502214602086895e+00 1.956856034361072292e-04
8.572653236176597247e+00 1.937491923090125503e-04
8.629804257751109375e+00 1.917115931802974241e-04
8.686955279325617951e+00 1.895739441055450264e-04
8.744106300900130080e+00 1.873374356841513123e-04
8.801257322474640432e+00 1.850033099216152172e-04
8.858408344049150784e+00 1.825728603263837417e-04
8.915559365623661137e+00 1.800474306904071046e-04
8.972710387198171489e+00 1.774284143480966958e-04
9.029861408772683617e+00 1.747172537262464893e-04
9.087012430347192193e+00 1.719154398593648837e-04
9.144163451921704322e+00 1.690245103991973666e-04
9.201314473496214674e+00 1.660460498349658953e-04
9.258465495070725026e+00 1.629816883084137414e-04
9.315616516645237155e+00 1.598331007529507815e-04
9.372767538219745731e+00 1.566020046135399265e-04
9.429918559794257860e+00 1.532901625757452561e-04
9.487069581368768212e+00 1.498993775050092090e-04
9.544220602943278564e+00 1.464314931573369152e-04
9.601371624517788916e+00 1.428883945831742721e-04
9.658522646092299269e+00 1.392720036572229255e-04
9.715673667666811397e+00 1.355842805833369549e-04
9.772824689241321749e+00 1.318272232910560791e-04
9.829975710815832102e+00 1.280028650650958625e-04
9.887126732390342454e+00 1.241132730103894377e-04
9.944277753964852806e+00 1.201605484677946471e-04
1.000142877553936316e+01 1.161468243756861457e-04
1.005857979711387351e+01 1.120742646173115541e-04
1.011573081868838564e+01 1.079450640204338897e-04
1.017288184026289599e+01 1.037614452206116916e-04
1.023003286183740634e+01 9.952565827215612438e-05
1.028718388341191670e+01 9.523998007686345745e-05
1.034433490498642705e+01 9.090671229801772864e-05
1.040148592656093740e+01 8.652818079337915090e-05
1.045863694813544953e+01 8.210673341379053102e-05
1.051578796970995988e+01 7.764473968853866852e-05
1.057293899128447023e+01 7.314458897929045870e-05
1.063009001285898059e+01 6.860868985853846259e-05
1.068724103443349094e+01 6.403946756389053321e-05
1.074439205600800307e+01 5.943936394272434395e-05
1.080154307758251342e+01 5.481083592973656272e-05
1.085869409915702377e+01 5.015635321439166684e-05
1.091584512073153412e+01 4.547839775625747656e-05
1.097299614230604448e+01 4.077946262507845394e-05
1.103014716388055660e+01 3.606205046430944967e-05
1.108729818545506518e+01 3.132867187358043476e-05
1.114444920702957731e+01 2.658184463519443598e-05
1.120160022860408766e+01 2.182409158668014094e-05
1.125875125017859801e+01 1.705793980863658271e-05
1.131590227175311014e+01 1.228591907218498704e-05
1.137305329332761872e+01 7.510560683064622186e-06
1.143020431490213085e+01 2.734396043395836039e-06
1.148735533647663942e+01 -2.040044835769214401e-06
1.154450635805115155e+01 -6.810234438730713534e-06
1.160165737962566190e+01 -1.157364925284719301e-05
1.165880840120017226e+01 -1.632777111502706452e-05
1.171595942277468438e+01 -2.107008853143203602e-05
1.177311044434919296e+01 -2.579809788463374064e-05
1.183026146592370509e+01 -3.050930478311145381e-05
1.188741248749821544e+01 -3.520122565791784531e-05
1.194456350907272579e+01 -3.987138851366153454e-05
1.200171453064723615e+01 -4.451733501125805439e-05
1.205886555222174650e+01 -4.913662118856163366e-05
1.211601657379625863e+01 -5.372681898008626960e-05
1.217316759537076720e+01 -5.828551727340986469e-05
1.223031861694527933e+01 -6.281032306831315325e-05
1.228746963851978968e+01 -6.729886342540111429e-05
1.234462066009430004e+01 -7.174878562257292847e-05
1.240177168166881216e+01 -7.615775962577486227e-05
1.245892270324332252e+01 -8.052347873652932939e-05
1.251607372481783287e+01 -8.484366053182643369e-05
1.257322474639234144e+01 -8.911604843184539929e-05
1.263037576796685357e+01 -9.333841264660774038e-05
1.268752678954136393e+01 -9.750855167412432662e-05
1.274467781111587605e+01 -1.016242934410563266e-04
1.280182883269038463e+01 -1.056834955386269756e-04
1.285897985426489498e+01 -1.096840469360565789e-04
1.291613087583940711e+01 -1.136238693127622436e-04
1.297328189741391746e+01 -1.175009183943018069e-04
1.303043291898842959e+01 -1.213131844804973478e-04
1.308758394056293817e+01 -1.250586933505493591e-04
1.314473496213744852e+01 -1.287355073488179527e-04
1.320188598371196065e+01 -1.323417273346174055e-04
1.325903700528647100e+01 -1.358754924833451298e-04
1.331618802686098313e+01 -1.393349816940319102e-04
1.337333904843549170e+01 -1.427184141770114110e-04
1.343049007001000206e+01 -1.460240510072117971e-04
1.348764109158451419e+01 -1.492501954692992982e-04
1.354479211315902454e+01 -1.523951942486839446e-04
1.360194313473353489e+01 -1.554574381782273303e-04
1.365909415630804347e+01 -1.584353631366594518e-04
1.371624517788255559e+01 -1.613274503572723441e-04
1.377339619945706595e+01 -1.641322282350725175e-04
1.383054722103157808e+01 -1.668482720633772919e-04
1.388769824260608843e+01 -1.694742057614716062e-04
1.394484926418059700e+01 -1.720087010634931168e-04
1.400200028575510913e+01 -1.744504794359069482e-04
1.405915130732961948e+01 -1.767983121418089385e-04
1.411630232890413161e+01 -1.790510217845135417e-04
1.417345335047864197e+01 -1.812074813310817509e-04
1.423060437205315054e+01 -1.832666156840977970e-04
1.428775539362766267e+01 -1.852274022782970659e-04
1.434490641520217302e+01 -1.870888712750223663e-04
1.440205743677668515e+01 -1.888501054913055606e-04
1.445920845835119550e+01 -1.905102423579474219e-04
1.451635947992570408e+01 -1.920684731502576533e-04
1.457351050150021443e+01 -1.935240438632327743e-04
1.463066152307472656e+01 -1.948762552624150963e-04
1.468781254464923691e+01 -1.961244634366672373e-04
1.474496356622374904e+01 -1.972680792872274548e-04
1.480211458779825762e+01 -1.983065698019517513e-04
1.485926560937276797e+01 -1.992394583715019767e-04
1.491641663094728010e+01 -2.000663243082722589e-04
1.497356765252179045e+01 -2.007868035047249663e-04
1.503071867409630258e+01 -2.014005880029320602e-04
1.508786969567081115e+01 -2.019074265200369303e-04
1.514502071724532151e+01 -2.023071249903756743e-04
1.520217173881983364e+01 -2.025995464836929363e-04
1.525932276039434399e+01 -2.027846105642417047e-04
1.531647378196885612e+01 -2.028622923690806838e-04
1.537362480354336469e+01 -2.028326253621820811e-04
1.543077582511787504e+01 -2.026956992778679474e-04
1.548792684669238717e+01 -2.024516616060997431e-04
1.554507786826689753e+01 -2.021007146505758112e-04
1.560222888984140965e+01 -2.016431173321043126e-04
1.565937991141591645e+01 -2.010791855534786190e-04
1.571653093299042858e+01 -2.004092910536090552e-04
1.577368195456493893e+01 -1.996338607096076760e-04
1.583083297613945106e+01 -1.987533774884145496e-04
1.588798399771396141e+01 -1.977683796010060321e-04
1.594513501928846999e+01 -1.966794597409109548e-04
1.600228604086298034e+01 -1.954872648618808479e-04
1.605943706243749247e+01 -1.941924964791070260e-04
1.611658808401200460e+01 -1.927959089146020566e-04
1.617373910558651673e+01 -1.912983119011106082e-04
1.623089012716102530e+01 -1.897005662799166248e-04
1.628804114873553388e+01 -1.880035846586558350e-04
1.634519217031004601e+01 -1.862083327927732820e-04
1.640234319188455814e+01 -1.843158269384659450e-04
1.645949421345907027e+01 -1.823271327725053969e-04
1.651664523503357884e+01 -1.802433688872464755e-04
1.657379625660808742e+01 -1.780657012366936682e-04
1.663094727818259955e+01 -1.757953452410193325e-04
1.668809829975711168e+01 -1.734335638332276566e-04
1.674524932133162025e+01 -1.709816673920369341e-04
1.680240034290612883e+01 -1.684410136312427500e-04
1.685955136448064096e+01 -1.658130053220909189e-04
1.691670238605515308e+01 -1.630990909367306305e-04
1.697385340762966521e+01 -1.603007625865412165e-04
1.703100442920417379e+01 -1.574195562694722219e-04
1.708815545077868236e+01 -1.544570510543167414e-04
1.714530647235319449e+01 -1.514148672201112310e-04
1.720245749392770662e+01 -1.482946664897462732e-04
1.725960851550221875e+01 -1.450981496290398702e-04
1.731675953707672733e+01 -1.418270571166220019e-04
1.737391055865123590e+01 -1.384831676287223267e-04
1.743106158022574803e+01 -1.350682974093973094e-04
1.748821260180026016e+01 -1.315842983872122021e-04
1.754536362337477229e+01 -1.280330562816267375e-04
1.760251464494928086e+01 -1.244164936286424879e-04
1.765966566652378944e+01 -1.207365656295321350e-04
1.771681668809830157e+01 -1.169952584271982882e-04
1.777396770967281370e+01 -1.131945886354494526e-04
1.783111873124732227e+01 -1.093366037707051966e-04
1.788826975282183085e+01 -1.054233799196000626e-04
1.794542077439634298e+01 -1.014570213571380509e-04
1.800257179597085511e+01 -9.743965797229229187e-05
1.805972281754536723e+01 -9.337344717900828870e-05
1.811687383911987581e+01 -8.926056811448885219e-05
1.817402486069438439e+01 -8.510322401748807359e-05
1.823117588226889652e+01 -8.090364113003012283e-05
1.828832690384340864e+01 -7.666406497541081752e-05
1.834547792541792077e+01 -7.238676128259513077e-05
1.840262894699242935e+01 -6.807401440487553909e-05
1.845977996856693792e+01 -6.372812492080859835e-05
1.851693099014145005e+01 -5.935141000722692203e-05
1.857408201171596218e+01 -5.494620100445859367e-05
1.863123303329047431e+01 -5.051484365781336663e-05
1.868838405486498289e+01 -4.605969578015033989e-05
1.874553507643949146e+01 -4.158312546523798954e-05
1.880268609801400359e+01 -3.708751110159110254e-05
1.885983711958851572e+01 -3.257523949023399216e-05
1.891698814116302430e+01 -2.804870431657698068e-05
1.897413916273753642e+01 -2.351030562719590454e-05
1.903129018431204500e+01 -1.896244777392437330e-05
1.908844120588655713e+01 -1.440753829149034547e-05
1.914559222746106926e+01 -9.847987177082511125e-06
1.920274324903557783e+01 -5.286205426500631501e-06
1.925989427061008996e+01 -7.246033961316354322e-07
1.931704529218459854e+01 3.834410120178091589e-06
1.937419631375911067e+01 8.388429320162159026e-06
1.943134733533362279e+01 1.293505259194821073e-05
1.948849835690813137e+01 1.747188378241480410e-05
1.954564937848264350e+01 2.199653342194537539e-05
1.960280040005715207e+01 2.650662001050917098e-05
1.965995142163166420e+01 3.099977128301074480e-05
1.971710244320617633e+01 3.547362529063140415e-05
1.977425346478068491e+01 3.992583205261397060e-05
1.983140448635519704e+01 4.435405440690813985e-05
1.988855550792970561e+01 4.875596931901555976e-05
1.994570652950421774e+01 5.312926907012329109e-05
2.000285755107872632e+01 5.747166283351475886e-05
2.006000857265323845e+01 6.178087710557386171e-05
2.011715959422774702e+01 6.605465753749609203e-05
2.017431061580225915e+01 7.029076950786516292e-05
2.023146163737677128e+01 7.448699987501872352e-05
2.028861265895127985e+01 7.864115762742766597e-05
2.034576368052579198e+01 8.275107506944690949e-05
2.040291470210030056e+01 8.681460986450637485e-05
2.046006572367481269e+01 9.082964486772145823e-05
2.051721674524932482e+01 9.479409037979837267e-05
2.057436776682383339e+01 9.870588484687671635e-05
2.063151878839834552e+01 1.025629952017399852e-04
2.068866980997285410e+01 1.063634190168794464e-04
2.074582083154736623e+01 1.101051844376288696e-04
2.080297185312187480e+01 1.137863516375381905e-04
2.086012287469638693e+01 1.174050141397089806e-04
2.091727389627089906e+01 1.209592988800087872e-04
2.097442491784540763e+01 1.244473681517379866e-04
2.103157593941991976e+01 1.278674202738458768e-04
2.108872696099442834e+01 1.312176899072378796e-04
2.114587798256894047e+01 1.344964500873586401e-04
2.120302900414345260e+01 1.377020125652903785e-04
2.126018002571796117e+01 1.408327289168647431e-04
2.131733104729247330e+01 1.438869907751258394e-04
2.137448206886698188e+01 1.468632311418919287e-04
2.143163309044149401e+01 1.497599250365209749e-04
2.148878411201600613e+01 1.525755894826806677e-04
2.154593513359051471e+01 1.553087855203360852e-04
2.160308615516502684e+01 1.579581183383600609e-04
2.166023717673953541e+01 1.605222380947831122e-04
2.171738819831404754e+01 1.629998401827907877e-04
2.177453921988855967e+01 1.653896672343000362e-04
2.183169024146306825e+01 1.676905079326950518e-04
2.188884126303757682e+01 1.699011991264321928e-04
2.194599228461208895e+01 1.720206250258078803e-04
2.200314330618660108e+01 1.740477191537324777e-04
2.206029432776111321e+01 1.759814631606293099e-04
2.211744534933562178e+01 1.778208892336567628e-04
2.217459637091013036e+01 1.795650790505047144e-04
2.223174739248464249e+01 1.812131659569440163e-04
2.228889841405915462e+01 1.827643332631117960e-04
2.234604943563366675e+01 1.842178160240504439e-04
2.240320045720817532e+01 1.855729014328584298e-04
2.246035147878268390e+01 1.868289282151108332e-04
2.251750250035719603e+01 1.879852880027828603e-04
